BVP
1533584024
64
0
0
0
0
0
0
0
0
0
0
0
0.01
0.01
0
-0.03
-0.05
-0.05
0
0.13
0.36
0.66
1.01
1.38
1.72
2.06
2.39
2.78
3.24
3.82
4.48
5.16
5.79
6.32
6.74
7.11
7.53
8.1
8.93
9.97
11.1
12.16
13.08
13.86
14.67
15.76
17.3
19.57
22.39
25.46
28.43
31.03
33.31
35.59
38.38
42.12
47.31
53.63
60.49
67.13
73
78.04
82.77
88.09
94.83
103.81
114.62
126.33
137.68
147.69
156.1
163.58
171.83
180.12
191.25
206.02
224.3
244.28
262.35
273.67
273.61
259.3
230.65
190.79
143.96
94.39
44.79
-4.09
-52.94
-102.83
-154.12
-205.93
-255.57
-299.62
-334.28
-356.52
-365
-360.59
-346.15
-325.46
-301.99
-278.01
-254.87
-233.05
-212.85
-194.63
-178.68
-164.89
-152.57
-140.65
-128.11
-114.63
-100.64
-87.12
-75.16
-65.39
-57.71
-51.4
-45.49
-39.2
-32.33
-25.2
-18.48
-12.79
-8.38
-5.11
-2.51
-0.06
2.56
5.41
8.26
10.75
12.57
13.58
13.84
13.6
13.19
12.9
12.88
13.13
13.46
13.64
13.47
12.88
11.93
10.84
9.8
9
8.49
8.28
8.35
8.69
9.34
10.31
11.56
12.97
14.37
15.59
16.47
16.93
16.99
16.75
16.33
15.84
15.38
14.96
14.59
14.24
13.92
13.6
13.25
12.82
12.27
11.55
10.68
9.73
8.81
8
7.37
6.93
6.66
6.54
6.54
6.58
6.58
6.44
6.1
5.6
5.02
4.49
4.11
3.89
3.76
3.62
3.37
3.04
2.71
2.51
2.55
2.84
3.28
3.74
4.08
4.22
4.19
4.05
3.86
3.66
3.45
3.23
2.97
2.71
2.48
2.31
2.19
2.09
1.99
1.85
1.66
1.43
1.2
0.98
0.8
0.66
0.56
0.48
0.41
0.3
0.11
-0.17
-0.52
-0.9
-1.19
-1.29
-1.16
-0.82
-0.4
-0.03
0.16
0.13
-0.07
-0.3
-0.44
-0.41
-0.24
0
0.19
0.3
0.37
0.49
0.71
1.04
1.41
1.73
1.9
1.93
1.85
1.73
1.64
1.58
1.54
1.51
1.5
1.52
1.64
1.87
2.2
2.59
2.93
3.13
3.1
2.84
2.43
1.97
1.58
1.32
1.18
1.11
1.09
1.07
1.07
1.12
1.25
1.44
1.64
1.78
1.8
1.69
1.48
1.28
1.2
1.32
1.6
1.95
2.2
2.23
2.01
1.62
1.2
0.9
0.82
0.94
1.2
1.5
1.76
1.95
2.07
2.12
2.12
2.08
2.01
1.94
1.9
1.89
1.89
1.85
1.71
1.45
1.1
0.74
0.5
0.45
0.57
0.77
0.94
0.94
0.78
0.49
0.21
0.07
0.16
0.43
0.8
1.1
1.2
1.05
0.69
0.28
0
-0.06
0.12
0.44
0.75
0.93
0.95
0.86
0.73
0.61
0.54
0.49
0.46
0.43
0.45
0.54
0.73
0.96
1.12
1.12
0.91
0.51
0.05
-0.34
-0.52
-0.51
-0.35
-0.18
-0.12
-0.19
-0.34
-0.46
-0.46
-0.31
-0.03
0.29
0.58
0.76
0.81
0.72
0.52
0.24
-0.06
-0.34
-0.56
-0.66
-0.65
-0.51
-0.31
-0.08
0.11
0.23
0.27
0.23
0.14
0.04
0
0.05
0.21
0.45
0.68
0.8
0.74
0.49
0.15
-0.12
-0.19
0.02
0.44
0.93
1.32
1.51
1.54
1.49
1.47
1.52
1.64
1.75
1.77
1.68
1.46
1.18
0.92
0.76
0.76
0.9
1.15
1.43
1.67
1.84
1.9
1.84
1.69
1.46
1.21
0.97
0.75
0.53
0.32
0.12
0.01
0.08
0.33
0.7
1.03
1.19
1.08
0.77
0.37
0
-0.29
-0.53
-0.72
-0.86
-0.87
-0.73
-0.45
-0.12
0.12
0.21
0.12
-0.07
-0.26
-0.39
-0.43
-0.42
-0.42
-0.44
-0.48
-0.5
-0.46
-0.35
-0.16
0.08
0.36
0.66
0.93
1.14
1.24
1.2
1
0.7
0.37
0.1
-0.05
-0.1
-0.1
-0.13
-0.24
-0.43
-0.62
-0.71
-0.65
-0.45
-0.16
0.11
0.29
0.37
0.36
0.29
0.17
-0.01
-0.23
-0.43
-0.52
-0.43
-0.16
0.17
0.4
0.4
0.13
-0.31
-0.75
-0.99
-0.95
-0.67
-0.26
0.11
0.37
0.49
0.53
0.57
0.63
0.71
0.71
0.58
0.28
-0.08
-0.38
-0.48
-0.36
-0.1
0.17
0.31
0.27
0.15
0.05
0.07
0.21
0.39
0.5
0.49
0.37
0.24
0.16
0.15
0.15
0.09
-0.05
-0.22
-0.32
-0.27
-0.05
0.28
0.62
0.86
0.92
0.84
0.69
0.55
0.48
0.45
0.42
0.33
0.14
-0.14
-0.43
-0.61
-0.59
-0.35
0.06
0.5
0.83
0.96
0.88
0.71
0.56
0.5
0.55
0.64
0.64
0.51
0.27
0.03
-0.1
-0.06
0.11
0.27
0.29
0.14
-0.12
-0.35
-0.42
-0.3
-0.11
0
-0.07
-0.32
-0.62
-0.81
-0.79
-0.58
-0.29
-0.04
0.1
0.16
0.22
0.31
0.42
0.47
0.38
0.14
-0.15
-0.36
-0.36
-0.13
0.2
0.47
0.52
0.32
-0.05
-0.39
-0.54
-0.42
-0.09
0.29
0.56
0.61
0.47
0.23
-0.01
-0.17
-0.29
-0.42
-0.6
-0.82
-1.02
-1.12
-1.07
-0.87
-0.59
-0.31
-0.12
-0.1
-0.27
-0.59
-0.94
-1.19
-1.25
-1.1
-0.83
-0.61
-0.56
-0.74
-1.08
-1.46
-1.72
-1.79
-1.66
-1.41
-1.19
-1.1
-1.16
-1.33
-1.47
-1.49
-1.35
-1.1
-0.86
-0.73
-0.74
-0.84
-0.95
-1
-0.96
-0.85
-0.71
-0.56
-0.38
-0.13
0.22
0.67
1.16
1.63
2.01
2.28
2.44
2.52
2.53
2.43
2.18
1.78
1.3
0.89
0.73
0.93
1.47
2.24
3.06
3.74
4.2
4.42
4.45
4.34
4.19
4.07
4.03
4.11
4.29
4.48
4.59
4.52
4.24
3.79
3.26
2.76
2.35
2.08
1.94
1.9
1.95
2.04
2.09
2.03
1.78
1.34
0.75
0.11
-0.51
-1.08
-1.6
-2.07
-2.47
-2.78
-2.96
-3.03
-3.07
-3.16
-3.32
-3.51
-3.63
-3.62
-3.49
-3.29
-3.1
-2.98
-2.92
-2.89
-2.84
-2.71
-2.5
-2.24
-2.01
-1.86
-1.85
-1.95
-2.07
-2.09
-1.92
-1.57
-1.13
-0.73
-0.47
-0.38
-0.39
-0.43
-0.42
-0.35
-0.25
-0.13
0.01
0.18
0.36
0.51
0.56
0.47
0.25
-0.06
-0.35
-0.56
-0.61
-0.48
-0.2
0.18
0.57
0.9
1.09
1.11
0.98
0.73
0.45
0.2
0.03
-0.03
0.04
0.21
0.45
0.7
0.87
0.92
0.81
0.57
0.3
0.1
0.02
0.05
0.12
0.13
0
-0.27
-0.58
-0.84
-0.97
-0.95
-0.8
-0.59
-0.36
-0.15
0.02
0.16
0.24
0.27
0.28
0.3
0.37
0.46
0.52
0.52
0.43
0.29
0.17
0.1
0.07
0.02
-0.07
-0.24
-0.43
-0.58
-0.68
-0.74
-0.82
-0.97
-1.17
-1.38
-1.53
-1.59
-1.56
-1.45
-1.29
-1.08
-0.81
-0.47
-0.11
0.19
0.36
0.36
0.24
0.1
0.05
0.17
0.44
0.79
1.11
1.28
1.28
1.12
0.92
0.73
0.61
0.55
0.53
0.54
0.57
0.64
0.74
0.86
0.95
0.99
0.95
0.82
0.61
0.36
0.1
-0.1
-0.16
-0.03
0.27
0.64
0.93
0.98
0.74
0.23
-0.38
-0.93
-1.26
-1.31
-1.09
-0.7
-0.25
0.14
0.37
0.44
0.39
0.31
0.29
0.34
0.41
0.42
0.29
0.02
-0.28
-0.49
-0.51
-0.32
-0.01
0.29
0.5
0.56
0.52
0.43
0.35
0.27
0.17
0.03
-0.17
-0.39
-0.62
-0.85
-1.12
-1.44
-1.81
-2.22
-2.59
-2.88
-3.06
-3.14
-3.11
-2.95
-2.66
-2.25
-1.81
-1.43
-1.21
-1.13
-1.12
-1.03
-0.77
-0.32
0.23
0.77
1.24
1.64
2.05
2.54
3.14
3.76
4.31
4.69
4.86
4.85
4.69
4.42
4.05
3.54
2.9
2.15
1.39
0.67
0.03
-0.51
-0.96
-1.3
-1.46
-1.37
-1
-0.38
0.39
1.12
1.63
1.84
1.71
1.34
0.82
0.29
-0.17
-0.55
-0.85
-1.13
-1.4
-1.63
-1.81
-1.87
-1.83
-1.7
-1.55
-1.44
-1.39
-1.38
-1.38
-1.4
-1.45
-1.57
-1.77
-2.04
-2.3
-2.49
-2.54
-2.46
-2.26
-1.95
-1.57
-1.15
-0.74
-0.4
-0.21
-0.14
-0.15
-0.11
0.07
0.4
0.81
1.14
1.29
1.2
0.92
0.53
0.14
-0.16
-0.31
-0.27
-0.04
0.33
0.76
1.13
1.35
1.38
1.25
1.06
0.94
0.96
1.13
1.4
1.69
1.9
2
1.98
1.9
1.83
1.83
1.88
1.89
1.77
1.48
1.03
0.5
-0.02
-0.46
-0.8
-1.07
-1.26
-1.35
-1.31
-1.13
-0.88
-0.67
-0.61
-0.73
-0.97
-1.22
-1.4
-1.46
-1.42
-1.33
-1.17
-0.91
-0.52
-0.05
0.43
0.8
0.99
0.98
0.83
0.61
0.38
0.17
0.02
-0.06
-0.02
0.1
0.25
0.36
0.39
0.33
0.24
0.17
0.11
0.02
-0.13
-0.32
-0.48
-0.53
-0.45
-0.33
-0.26
-0.31
-0.45
-0.56
-0.51
-0.24
0.18
0.61
0.87
0.87
0.66
0.33
0.02
-0.17
-0.23
-0.17
-0.04
0.14
0.35
0.57
0.78
0.94
1.01
0.96
0.79
0.53
0.22
-0.05
-0.24
-0.31
-0.28
-0.21
-0.13
-0.07
-0.01
0.06
0.15
0.25
0.33
0.33
0.26
0.13
0
-0.11
-0.18
-0.23
-0.26
-0.27
-0.25
-0.17
-0.01
0.25
0.53
0.73
0.77
0.58
0.21
-0.23
-0.58
-0.75
-0.73
-0.59
-0.45
-0.39
-0.43
-0.52
-0.61
-0.69
-0.76
-0.82
-0.85
-0.79
-0.6
-0.32
-0.04
0.13
0.16
0.06
-0.05
-0.06
0.09
0.37
0.74
1.11
1.41
1.56
1.49
1.14
0.54
-0.18
-0.8
-1.15
-1.15
-0.92
-0.66
-0.58
-0.74
-1.07
-1.4
-1.58
-1.54
-1.33
-1.04
-0.8
-0.65
-0.65
-0.77
-0.96
-1.16
-1.3
-1.36
-1.36
-1.37
-1.45
-1.6
-1.76
-1.82
-1.71
-1.44
-1.09
-0.78
-0.59
-0.52
-0.5
-0.43
-0.23
0.11
0.56
1.04
1.5
1.88
2.16
2.33
2.41
2.4
2.31
2.17
2.03
1.9
1.8
1.72
1.64
1.55
1.41
1.26
1.12
1.03
0.99
0.97
0.92
0.81
0.68
0.56
0.53
0.58
0.68
0.76
0.75
0.67
0.53
0.39
0.26
0.12
-0.06
-0.31
-0.58
-0.8
-0.88
-0.8
-0.6
-0.37
-0.23
-0.25
-0.45
-0.79
-1.18
-1.51
-1.68
-1.63
-1.34
-0.86
-0.29
0.22
0.5
0.51
0.27
-0.04
-0.23
-0.16
0.19
0.69
1.18
1.51
1.61
1.51
1.29
1
0.7
0.45
0.3
0.33
0.54
0.89
1.26
1.52
1.58
1.42
1.1
0.73
0.37
0.04
-0.28
-0.59
-0.86
-1.02
-0.98
-0.76
-0.42
-0.07
0.18
0.3
0.34
0.35
0.38
0.42
0.44
0.42
0.38
0.38
0.42
0.46
0.41
0.2
-0.18
-0.62
-0.99
-1.17
-1.15
-0.99
-0.8
-0.66
-0.6
-0.59
-0.58
-0.53
-0.45
-0.35
-0.26
-0.18
-0.15
-0.17
-0.26
-0.42
-0.61
-0.75
-0.75
-0.61
-0.37
-0.16
-0.07
-0.14
-0.31
-0.51
-0.62
-0.62
-0.54
-0.44
-0.38
-0.36
-0.35
-0.32
-0.27
-0.2
-0.17
-0.18
-0.21
-0.21
-0.16
-0.04
0.11
0.25
0.37
0.45
0.5
0.54
0.57
0.57
0.54
0.46
0.34
0.2
0.07
-0.04
-0.11
-0.16
-0.21
-0.26
-0.33
-0.39
-0.42
-0.42
-0.41
-0.41
-0.44
-0.5
-0.55
-0.59
-0.6
-0.61
-0.66
-0.78
-0.92
-1.01
-0.96
-0.75
-0.4
0
0.32
0.48
0.47
0.32
0.11
-0.12
-0.31
-0.46
-0.54
-0.52
-0.36
-0.08
0.27
0.6
0.82
0.91
0.85
0.7
0.49
0.29
0.16
0.17
0.35
0.69
1.11
1.49
1.75
1.82
1.75
1.6
1.4
1.16
0.85
0.46
0.02
-0.37
-0.64
-0.72
-0.63
-0.46
-0.31
-0.23
-0.22
-0.24
-0.22
-0.14
-0.01
0.1
0.17
0.16
0.09
0.01
-0.07
-0.15
-0.26
-0.42
-0.59
-0.69
-0.63
-0.37
0
0.35
0.56
0.57
0.47
0.37
0.39
0.5
0.62
0.6
0.39
0.07
-0.19
-0.25
-0.05
0.29
0.59
0.67
0.47
0.05
-0.42
-0.76
-0.88
-0.8
-0.62
-0.46
-0.38
-0.41
-0.52
-0.71
-0.99
-1.3
-1.59
-1.73
-1.6
-1.18
-0.54
0.13
0.62
0.81
0.69
0.34
-0.09
-0.47
-0.7
-0.74
-0.56
-0.21
0.24
0.68
1
1.15
1.15
1.07
0.99
0.96
0.99
1.03
1.03
0.97
0.85
0.66
0.44
0.23
0.06
-0.01
0.04
0.18
0.33
0.36
0.21
-0.06
-0.34
-0.47
-0.38
-0.09
0.25
0.48
0.51
0.34
0.04
-0.28
-0.56
-0.81
-1
-1.11
-1.1
-0.95
-0.67
-0.32
0.04
0.4
0.71
0.96
1.07
1
0.71
0.28
-0.16
-0.45
-0.52
-0.39
-0.2
-0.05
-0.02
-0.09
-0.21
-0.34
-0.47
-0.6
-0.74
-0.84
-0.85
-0.73
-0.48
-0.2
0.03
0.13
0.04
-0.2
-0.52
-0.82
-0.97
-0.91
-0.61
-0.15
0.35
0.77
0.99
1
0.85
0.62
0.37
0.14
-0.04
-0.18
-0.23
-0.18
-0.03
0.16
0.34
0.42
0.37
0.21
-0.03
-0.28
-0.46
-0.56
-0.56
-0.48
-0.38
-0.29
-0.23
-0.2
-0.15
-0.04
0.11
0.24
0.25
0.09
-0.21
-0.51
-0.65
-0.51
-0.07
0.53
1.07
1.4
1.45
1.28
1.01
0.74
0.53
0.36
0.2
0.05
-0.09
-0.18
-0.2
-0.14
-0.04
0.05
0.08
0.04
-0.05
-0.14
-0.17
-0.11
0
0.12
0.2
0.23
0.24
0.25
0.28
0.25
0.1
-0.24
-0.7
-1.14
-1.38
-1.31
-0.95
-0.44
-0.01
0.22
0.2
0.01
-0.2
-0.28
-0.18
0.09
0.45
0.8
1.05
1.14
1.05
0.8
0.47
0.13
-0.13
-0.28
-0.28
-0.16
0.03
0.22
0.34
0.36
0.27
0.14
0.04
0.04
0.15
0.33
0.51
0.59
0.53
0.36
0.13
-0.09
-0.24
-0.3
-0.27
-0.22
-0.22
-0.3
-0.46
-0.63
-0.72
-0.67
-0.51
-0.3
-0.13
-0.04
0
0.05
0.13
0.24
0.32
0.32
0.22
0.07
-0.05
-0.07
0.01
0.13
0.19
0.12
-0.09
-0.39
-0.66
-0.81
-0.76
-0.53
-0.17
0.22
0.57
0.82
0.91
0.84
0.63
0.32
-0.03
-0.33
-0.53
-0.6
-0.57
-0.47
-0.38
-0.33
-0.34
-0.38
-0.42
-0.38
-0.28
-0.12
0.03
0.13
0.13
0.05
-0.05
-0.14
-0.17
-0.16
-0.14
-0.14
-0.15
-0.15
-0.13
-0.07
0
0.09
0.21
0.39
0.63
0.89
1.04
0.98
0.65
0.13
-0.41
-0.76
-0.82
-0.6
-0.23
0.15
0.43
0.59
0.65
0.63
0.53
0.32
-0.02
-0.41
-0.76
-0.97
-0.95
-0.74
-0.43
-0.18
-0.08
-0.17
-0.37
-0.53
-0.53
-0.31
0.05
0.41
0.62
0.61
0.4
0.08
-0.25
-0.52
-0.71
-0.81
-0.79
-0.62
-0.29
0.17
0.65
1.03
1.2
1.11
0.79
0.35
-0.07
-0.37
-0.48
-0.43
-0.29
-0.12
0.03
0.17
0.33
0.49
0.63
0.67
0.56
0.32
0.05
-0.12
-0.12
-0.01
0.13
0.17
0.08
-0.09
-0.24
-0.3
-0.24
-0.12
0.03
0.16
0.28
0.38
0.42
0.34
0.12
-0.2
-0.49
-0.61
-0.48
-0.11
0.38
0.8
1
0.89
0.49
-0.08
-0.62
-0.94
-0.95
-0.66
-0.2
0.27
0.61
0.78
0.83
0.84
0.86
0.91
0.9
0.78
0.5
0.11
-0.34
-0.74
-1
-1.09
-1.01
-0.83
-0.61
-0.41
-0.22
-0.03
0.14
0.26
0.25
0.08
-0.2
-0.44
-0.51
-0.33
0.04
0.45
0.69
0.67
0.42
0.07
-0.22
-0.37
-0.38
-0.3
-0.19
-0.08
0.07
0.25
0.45
0.57
0.56
0.34
-0.05
-0.5
-0.87
-1.04
-0.95
-0.67
-0.33
-0.09
-0.06
-0.24
-0.51
-0.75
-0.82
-0.72
-0.54
-0.37
-0.3
-0.35
-0.48
-0.59
-0.65
-0.63
-0.52
-0.33
-0.1
0.14
0.38
0.56
0.67
0.68
0.61
0.48
0.32
0.19
0.11
0.08
0.09
0.15
0.25
0.39
0.59
0.79
0.93
0.96
0.87
0.7
0.57
0.52
0.55
0.59
0.58
0.48
0.31
0.14
-0.03
-0.21
-0.43
-0.69
-0.92
-1.02
-0.95
-0.73
-0.48
-0.32
-0.28
-0.33
-0.34
-0.22
0.07
0.42
0.71
0.84
0.79
0.63
0.48
0.43
0.48
0.55
0.55
0.41
0.15
-0.14
-0.35
-0.41
-0.33
-0.18
-0.06
-0.05
-0.16
-0.37
-0.61
-0.79
-0.88
-0.85
-0.72
-0.57
-0.44
-0.37
-0.37
-0.39
-0.4
-0.38
-0.35
-0.35
-0.39
-0.46
-0.49
-0.42
-0.25
-0.04
0.1
0.12
0.01
-0.18
-0.35
-0.43
-0.43
-0.4
-0.43
-0.54
-0.73
-0.94
-1.11
-1.21
-1.24
-1.25
-1.24
-1.24
-1.21
-1.17
-1.13
-1.14
-1.22
-1.34
-1.47
-1.54
-1.51
-1.39
-1.23
-1.11
-1.08
-1.17
-1.37
-1.61
-1.79
-1.79
-1.52
-0.96
-0.2
0.6
1.3
1.82
2.16
2.43
2.72
3.06
3.44
3.79
4.07
4.23
4.27
4.18
3.93
3.49
2.84
2.04
1.12
0.22
-0.55
-1.06
-1.22
-1.05
-0.67
-0.29
-0.13
-0.28
-0.7
-1.2
-1.59
-1.75
-1.65
-1.4
-1.08
-0.75
-0.45
-0.2
-0.03
-0.03
-0.18
-0.45
-0.69
-0.76
-0.56
-0.16
0.3
0.63
0.72
0.57
0.31
0.11
0.09
0.26
0.53
0.75
0.86
0.84
0.79
0.83
0.96
1.15
1.26
1.2
0.95
0.62
0.35
0.23
0.28
0.43
0.6
0.71
0.76
0.77
0.71
0.59
0.38
0.11
-0.14
-0.26
-0.18
0.08
0.41
0.66
0.73
0.61
0.39
0.19
0.09
0.1
0.17
0.25
0.29
0.31
0.32
0.35
0.36
0.33
0.25
0.12
-0.02
-0.15
-0.26
-0.35
-0.4
-0.4
-0.35
-0.24
-0.12
0.01
0.12
0.22
0.32
0.4
0.43
0.39
0.29
0.17
0.07
-0.02
-0.14
-0.35
-0.67
-1
-1.24
-1.26
-1.03
-0.59
-0.09
0.33
0.56
0.58
0.46
0.27
0.1
-0.04
-0.14
-0.18
-0.14
0.08
0.51
1.13
1.81
2.36
2.6
2.47
2.06
1.55
1.14
0.97
1.04
1.3
1.62
1.9
2.1
2.22
2.31
2.44
2.66
2.99
3.38
3.8
4.19
4.5
4.74
4.9
4.98
5
5.04
5.18
5.51
6.02
6.58
6.97
6.96
6.47
5.56
4.49
3.54
2.89
2.57
2.46
2.47
2.55
2.76
3.18
3.78
4.44
4.98
5.2
5
4.41
3.54
2.51
1.45
0.45
-0.43
-1.17
-1.83
-2.49
-3.22
-4.02
-4.83
-5.52
-6.01
-6.27
-6.34
-6.3
-6.19
-6.02
-5.78
-5.48
-5.13
-4.77
-4.37
-3.91
-3.37
-2.79
-2.26
-1.92
-1.81
-1.92
-2.14
-2.36
-2.48
-2.5
-2.49
-2.52
-2.63
-2.82
-3.02
-3.16
-3.24
-3.27
-3.34
-3.48
-3.74
-4.05
-4.34
-4.54
-4.63
-4.64
-4.66
-4.77
-5.02
-5.38
-5.79
-6.17
-6.44
-6.56
-6.54
-6.42
-6.25
-6.07
-5.9
-5.68
-5.37
-4.95
-4.45
-3.94
-3.47
-3.03
-2.5
-1.74
-0.68
0.64
2.06
3.38
4.45
5.18
5.55
5.59
5.32
4.78
4.04
3.24
2.5
1.93
1.57
1.37
1.3
1.31
1.38
1.46
1.5
1.41
1.11
0.59
-0.07
-0.76
-1.37
-1.81
-2.04
-2.1
-2.02
-1.85
-1.64
-1.46
-1.38
-1.49
-1.87
-2.52
-3.36
-4.24
-4.96
-5.37
-5.42
-5.24
-5.04
-5.08
-5.48
-6.22
-7.13
-7.99
-8.63
-9
-9.18
-9.27
-9.38
-9.5
-9.55
-9.45
-9.11
-8.48
-7.63
-6.63
-5.58
-4.5
-3.38
-2.11
-0.64
1.08
2.96
4.87
6.68
8.3
9.76
11.16
12.62
14.15
15.67
16.97
17.79
17.93
17.34
16.15
14.57
12.88
11.27
9.83
8.57
7.41
6.34
5.33
4.43
3.66
3.03
2.51
2.03
1.56
1.07
0.6
0.21
-0.09
-0.28
-0.41
-0.55
-0.77
-1.07
-1.38
-1.59
-1.61
-1.43
-1.14
-0.88
-0.75
-0.79
-0.92
-1.03
-1.05
-0.96
-0.87
-0.86
-0.95
-1.11
-1.23
-1.25
-1.15
-0.98
-0.78
-0.58
-0.33
0.01
0.45
0.96
1.45
1.87
2.18
2.4
2.59
2.78
2.97
3.18
3.38
3.59
3.82
4.08
4.35
4.63
4.87
5.08
5.26
5.43
5.64
5.9
6.22
6.56
6.9
7.19
7.41
7.55
7.6
7.61
7.57
7.48
7.24
6.71
5.75
4.27
2.29
-0.03
-2.43
-4.62
-6.4
-7.68
-8.49
-8.9
-9.03
-8.94
-8.71
-8.41
-8.13
-7.94
-7.86
-7.89
-7.93
-7.88
-7.65
-7.21
-6.63
-6.03
-5.55
-5.28
-5.26
-5.45
-5.77
-6.12
-6.41
-6.6
-6.65
-6.54
-6.29
-5.91
-5.4
-4.78
-4.01
-3.12
-2.18
-1.28
-0.55
-0.05
0.23
0.4
0.58
0.85
1.2
1.53
1.76
1.81
1.71
1.54
1.43
1.46
1.62
1.84
2
1.99
1.85
1.64
1.51
1.53
1.7
1.88
1.97
1.89
1.67
1.42
1.24
1.18
1.2
1.26
1.32
1.37
1.42
1.47
1.48
1.4
1.22
0.93
0.6
0.28
0.02
-0.15
-0.23
-0.26
-0.26
-0.25
-0.21
-0.14
0
0.22
0.49
0.75
0.95
1.02
0.91
0.63
0.25
-0.13
-0.39
-0.46
-0.33
-0.06
0.2
0.34
0.3
0.12
-0.1
-0.26
-0.3
-0.26
-0.24
-0.32
-0.52
-0.83
-1.15
-1.42
-1.56
-1.54
-1.37
-1.1
-0.77
-0.42
-0.08
0.23
0.49
0.69
0.78
0.74
0.57
0.33
0.11
0.02
0.09
0.29
0.53
0.73
0.83
0.84
0.82
0.81
0.86
0.99
1.23
1.58
2.02
2.49
2.91
3.2
3.37
3.48
3.65
3.94
4.33
4.75
5.08
5.27
5.37
5.47
5.63
5.78
5.79
5.48
4.76
3.65
2.33
1.01
-0.12
-1
-1.68
-2.29
-3
-3.95
-5.16
-6.59
-8.1
-9.55
-10.84
-11.89
-12.66
-13.15
-13.33
-13.25
-12.97
-12.6
-12.24
-11.93
-11.59
-11.07
-10.18
-8.87
-7.16
-5.22
-3.25
-1.37
0.35
1.91
3.28
4.4
5.23
5.78
6.2
6.66
7.34
8.26
9.33
10.35
11.12
11.54
11.67
11.66
11.65
11.74
11.92
12.12
12.19
12
11.43
10.47
9.17
7.66
6.13
4.7
3.43
2.35
1.39
0.52
-0.37
-1.34
-2.44
-3.67
-4.91
-6.05
-6.93
-7.49
-7.74
-7.76
-7.62
-7.38
-7.05
-6.63
-6.13
-5.63
-5.17
-4.82
-4.56
-4.36
-4.14
-3.86
-3.47
-2.96
-2.37
-1.75
-1.2
-0.77
-0.49
-0.32
-0.23
-0.17
-0.13
-0.12
-0.17
-0.24
-0.3
-0.29
-0.16
0.09
0.39
0.65
0.78
0.77
0.61
0.41
0.23
0.12
0.1
0.15
0.24
0.32
0.33
0.24
0
-0.33
-0.66
-0.82
-0.73
-0.37
0.13
0.61
0.9
0.95
0.81
0.59
0.41
0.29
0.22
0.16
0.13
0.13
0.19
0.3
0.42
0.53
0.59
0.58
0.5
0.35
0.15
-0.06
-0.22
-0.29
-0.26
-0.16
-0.06
-0.03
-0.09
-0.2
-0.31
-0.39
-0.46
-0.56
-0.72
-0.91
-1.04
-1.03
-0.85
-0.55
-0.2
0.06
0.19
0.19
0.12
0.07
0.08
0.19
0.34
0.49
0.59
0.6
0.49
0.28
-0.04
-0.44
-0.85
-1.2
-1.39
-1.35
-1.06
-0.57
-0.02
0.46
0.75
0.82
0.74
0.6
0.51
0.53
0.62
0.72
0.77
0.77
0.76
0.78
0.84
0.88
0.79
0.51
0.04
-0.54
-1.1
-1.52
-1.73
-1.74
-1.63
-1.48
-1.36
-1.28
-1.19
-1.01
-0.68
-0.18
0.46
1.12
1.66
1.96
1.97
1.76
1.48
1.3
1.32
1.55
1.87
2.12
2.19
2.05
1.76
1.39
0.99
0.58
0.16
-0.25
-0.57
-0.78
-0.87
-0.93
-1.05
-1.28
-1.58
-1.87
-2.07
-2.16
-2.2
-2.25
-2.39
-2.59
-2.84
-3.09
-3.32
-3.53
-3.72
-3.83
-3.8
-3.62
-3.33
-3.04
-2.86
-2.84
-2.89
-2.84
-2.53
-1.92
-1.09
-0.2
0.62
1.29
1.85
2.34
2.77
3.07
3.19
3.11
2.94
2.77
2.7
2.71
2.71
2.58
2.29
1.9
1.52
1.28
1.21
1.23
1.19
0.96
0.49
-0.13
-0.74
-1.19
-1.44
-1.56
-1.68
-1.91
-2.28
-2.7
-3.04
-3.17
-3.05
-2.7
-2.2
-1.6
-0.93
-0.21
0.57
1.39
2.23
3.06
3.84
4.5
4.94
5.09
4.91
4.41
3.69
2.84
2.01
1.31
0.83
0.61
0.63
0.81
1.05
1.23
1.26
1.13
0.89
0.62
0.4
0.25
0.15
0.03
-0.16
-0.43
-0.73
-0.99
-1.16
-1.19
-1.13
-1
-0.85
-0.7
-0.54
-0.39
-0.26
-0.15
-0.07
-0.03
-0.02
-0.04
-0.1
-0.22
-0.38
-0.52
-0.58
-0.51
-0.35
-0.15
-0.02
0.01
-0.03
-0.04
0.04
0.23
0.43
0.51
0.4
0.1
-0.27
-0.58
-0.74
-0.76
-0.72
-0.7
-0.72
-0.72
-0.62
-0.4
-0.16
-0.03
-0.12
-0.46
-0.94
-1.38
-1.66
-1.75
-1.71
-1.67
-1.65
-1.66
-1.63
-1.55
-1.47
-1.48
-1.61
-1.82
-1.96
-1.88
-1.5
-0.87
-0.16
0.46
0.85
1.04
1.11
1.19
1.34
1.58
1.84
2.06
2.18
2.18
2.05
1.79
1.43
1.03
0.74
0.69
0.96
1.52
2.23
2.88
3.31
3.47
3.41
3.23
3.01
2.71
2.29
1.69
0.96
0.26
-0.27
-0.48
-0.39
-0.1
0.23
0.46
0.53
0.47
0.33
0.18
0.05
-0.05
-0.15
-0.24
-0.33
-0.4
-0.45
-0.48
-0.48
-0.44
-0.37
-0.27
-0.15
-0.06
-0.07
-0.23
-0.56
-1.02
-1.55
-2.07
-2.47
-2.68
-2.67
-2.44
-2.05
-1.58
-1.1
-0.72
-0.48
-0.44
-0.54
-0.71
-0.85
-0.88
-0.77
-0.57
-0.36
-0.23
-0.2
-0.25
-0.34
-0.46
-0.59
-0.74
-0.9
-1
-0.95
-0.7
-0.23
0.31
0.75
0.95
0.85
0.57
0.31
0.26
0.49
0.88
1.26
1.43
1.32
1.02
0.66
0.4
0.28
0.24
0.21
0.14
0.09
0.15
0.42
0.85
1.3
1.58
1.56
1.25
0.84
0.56
0.57
0.84
1.19
1.37
1.21
0.74
0.11
-0.46
-0.83
-0.97
-0.9
-0.67
-0.33
0.05
0.36
0.49
0.34
-0.03
-0.5
-0.85
-0.95
-0.78
-0.4
0.04
0.45
0.77
0.99
1.09
1.03
0.78
0.36
-0.16
-0.69
-1.16
-1.52
-1.74
-1.83
-1.83
-1.77
-1.68
-1.61
-1.58
-1.61
-1.69
-1.76
-1.78
-1.69
-1.48
-1.17
-0.82
-0.5
-0.26
-0.11
-0.06
-0.06
-0.05
-0.01
0.09
0.2
0.29
0.3
0.25
0.2
0.23
0.42
0.77
1.18
1.53
1.7
1.65
1.41
1.1
0.81
0.57
0.4
0.26
0.1
-0.09
-0.32
-0.58
-0.85
-1.07
-1.21
-1.21
-1.1
-0.91
-0.72
-0.6
-0.56
-0.57
-0.58
-0.54
-0.45
-0.34
-0.24
-0.21
-0.27
-0.39
-0.52
-0.58
-0.49
-0.24
0.14
0.54
0.86
0.99
0.89
0.61
0.23
-0.14
-0.41
-0.54
-0.51
-0.32
-0.02
0.37
0.76
1.06
1.19
1.13
0.93
0.71
0.6
0.68
0.95
1.3
1.59
1.74
1.72
1.6
1.45
1.34
1.27
1.22
1.14
0.96
0.7
0.36
0.02
-0.22
-0.27
-0.13
0.16
0.46
0.62
0.57
0.33
-0.02
-0.34
-0.58
-0.72
-0.82
-0.9
-0.95
-0.95
-0.87
-0.71
-0.52
-0.36
-0.26
-0.23
-0.24
-0.25
-0.23
-0.18
-0.09
0.04
0.18
0.27
0.24
0.05
-0.27
-0.62
-0.87
-0.89
-0.63
-0.2
0.26
0.58
0.69
0.61
0.43
0.3
0.3
0.45
0.65
0.78
0.75
0.52
0.15
-0.21
-0.43
-0.44
-0.3
-0.13
-0.06
-0.14
-0.35
-0.55
-0.63
-0.54
-0.32
-0.09
0.06
0.09
0.04
-0.05
-0.14
-0.25
-0.43
-0.69
-0.99
-1.23
-1.34
-1.25
-0.99
-0.62
-0.24
0.1
0.32
0.4
0.33
0.13
-0.1
-0.26
-0.28
-0.12
0.14
0.38
0.49
0.46
0.35
0.25
0.22
0.23
0.25
0.22
0.13
0.02
-0.12
-0.28
-0.48
-0.7
-0.9
-0.97
-0.85
-0.55
-0.18
0.11
0.2
0.07
-0.21
-0.49
-0.66
-0.65
-0.48
-0.2
0.08
0.28
0.34
0.24
0.04
-0.18
-0.32
-0.31
-0.13
0.16
0.5
0.78
0.95
1
0.92
0.77
0.56
0.36
0.17
0.05
0
0.04
0.15
0.28
0.37
0.39
0.36
0.31
0.26
0.21
0.12
-0.01
-0.19
-0.34
-0.38
-0.25
0.04
0.41
0.72
0.88
0.86
0.71
0.52
0.35
0.23
0.16
0.08
-0.02
-0.16
-0.32
-0.5
-0.68
-0.87
-1.03
-1.15
-1.18
-1.09
-0.87
-0.57
-0.22
0.12
0.44
0.74
1.03
1.3
1.49
1.53
1.37
1.02
0.55
0.1
-0.19
-0.24
-0.09
0.15
0.35
0.39
0.27
0.06
-0.14
-0.24
-0.22
-0.12
0.02
0.14
0.23
0.26
0.24
0.16
0.04
-0.08
-0.14
-0.13
-0.03
0.12
0.31
0.48
0.61
0.66
0.61
0.46
0.2
-0.12
-0.45
-0.72
-0.89
-0.95
-0.92
-0.87
-0.84
-0.88
-0.95
-1.02
-1.03
-0.96
-0.84
-0.73
-0.68
-0.68
-0.71
-0.7
-0.63
-0.5
-0.39
-0.38
-0.49
-0.72
-1.01
-1.28
-1.48
-1.6
-1.71
-1.86
-2.09
-2.39
-2.71
-2.99
-3.19
-3.32
-3.44
-3.57
-3.71
-3.8
-3.75
-3.49
-2.98
-2.23
-1.27
-0.15
1.03
2.16
3.09
3.7
3.94
3.81
3.35
2.65
1.8
0.91
0.08
-0.57
-0.9
-0.86
-0.43
0.29
1.18
2.12
3.02
3.83
4.49
4.93
5.09
4.92
4.46
3.84
3.22
2.77
2.55
2.5
2.52
2.47
2.32
2.08
1.85
1.69
1.61
1.58
1.55
1.47
1.34
1.18
1
0.8
0.57
0.31
0.03
-0.2
-0.37
-0.44
-0.43
-0.4
-0.43
-0.57
-0.84
-1.19
-1.53
-1.78
-1.9
-1.9
-1.87
-1.86
-1.91
-1.98
-1.98
-1.89
-1.74
-1.58
-1.5
-1.49
-1.51
-1.49
-1.4
-1.25
-1.12
-1.05
-1.07
-1.15
-1.21
-1.23
-1.23
-1.23
-1.28
-1.42
-1.62
-1.83
-1.99
-2.02
-1.93
-1.76
-1.56
-1.42
-1.37
-1.39
-1.43
-1.37
-1.16
-0.77
-0.23
0.34
0.85
1.18
1.31
1.25
1.08
0.93
0.86
0.93
1.16
1.56
2.14
2.94
3.94
5.08
6.23
7.23
7.97
8.48
8.83
9.09
9.29
9.3
9.01
8.32
7.32
6.14
4.94
3.77
2.57
1.24
-0.26
-1.85
-3.37
-4.64
-5.56
-6.13
-6.42
-6.47
-6.33
-6.01
-5.57
-5.13
-4.8
-4.67
-4.72
-4.84
-4.89
-4.75
-4.37
-3.79
-3.1
-2.43
-1.9
-1.57
-1.43
-1.42
-1.44
-1.41
-1.25
-0.98
-0.63
-0.24
0.15
0.54
0.9
1.23
1.45
1.51
1.36
1.03
0.62
0.25
0.03
0
0.12
0.29
0.45
0.59
0.73
0.9
1.08
1.21
1.23
1.13
0.96
0.82
0.71
0.62
0.48
0.25
-0.01
-0.22
-0.24
-0.07
0.25
0.55
0.7
0.62
0.33
-0.07
-0.44
-0.68
-0.74
-0.64
-0.44
-0.2
-0.01
0.09
0.08
-0.02
-0.15
-0.26
-0.29
-0.22
-0.05
0.18
0.44
0.69
0.88
0.96
0.93
0.78
0.58
0.39
0.28
0.27
0.35
0.45
0.56
0.66
0.76
0.87
0.96
0.97
0.85
0.64
0.41
0.28
0.33
0.52
0.75
0.88
0.81
0.55
0.21
-0.09
-0.23
-0.22
-0.12
-0.04
-0.04
-0.14
-0.3
-0.46
-0.59
-0.71
-0.84
-1
-1.16
-1.28
-1.3
-1.2
-1
-0.77
-0.61
-0.56
-0.63
-0.76
-0.89
-0.94
-0.89
-0.74
-0.55
-0.36
-0.23
-0.18
-0.21
-0.3
-0.4
-0.47
-0.52
-0.54
-0.56
-0.55
-0.5
-0.39
-0.22
-0.03
0.12
0.19
0.22
0.24
0.33
0.48
0.6
0.6
0.42
0.09
-0.25
-0.45
-0.41
-0.12
0.3
0.74
1.1
1.39
1.63
1.8
1.84
1.66
1.23
0.6
-0.06
-0.55
-0.73
-0.58
-0.2
0.23
0.57
0.72
0.68
0.47
0.19
-0.09
-0.3
-0.38
-0.34
-0.23
-0.13
-0.11
-0.17
-0.32
-0.5
-0.69
-0.86
-1
-1.09
-1.07
-0.9
-0.58
-0.18
0.21
0.43
0.43
0.25
0
-0.16
-0.15
-0.04
0.04
-0.06
-0.41
-0.89
-1.32
-1.46
-1.23
-0.7
-0.05
0.51
0.86
1
1
0.91
0.75
0.52
0.24
-0.03
-0.19
-0.19
-0.06
0.11
0.2
0.14
-0.05
-0.26
-0.4
-0.44
-0.39
-0.32
-0.26
-0.25
-0.23
-0.18
-0.09
-0.01
0
-0.08
-0.26
-0.44
-0.56
-0.57
-0.49
-0.39
-0.36
-0.41
-0.48
-0.51
-0.43
-0.25
-0.03
0.15
0.28
0.35
0.42
0.49
0.56
0.59
0.57
0.53
0.5
0.53
0.61
0.72
0.79
0.79
0.71
0.58
0.46
0.38
0.34
0.31
0.25
0.12
-0.07
-0.26
-0.42
-0.54
-0.62
-0.7
-0.8
-0.87
-0.88
-0.79
-0.64
-0.51
-0.51
-0.66
-0.89
-1.08
-1.11
-0.92
-0.58
-0.27
-0.13
-0.26
-0.62
-1.06
-1.38
-1.46
-1.25
-0.82
-0.32
0.12
0.4
0.5
0.46
0.3
0.08
-0.17
-0.42
-0.66
-0.8
-0.8
-0.61
-0.25
0.22
0.7
1.09
1.35
1.5
1.62
1.75
1.93
2.13
2.28
2.3
2.15
1.85
1.47
1.15
0.96
0.95
1.07
1.23
1.33
1.32
1.19
0.94
0.64
0.31
-0.03
-0.37
-0.7
-1.01
-1.27
-1.46
-1.55
-1.53
-1.36
-1.05
-0.64
-0.25
-0.02
-0.06
-0.39
-0.95
-1.6
-2.2
-2.66
-2.95
-3.04
-2.91
-2.53
-1.91
-1.1
-0.26
0.47
0.98
1.26
1.38
1.44
1.51
1.63
1.79
1.97
2.13
2.22
2.16
1.9
1.42
0.78
0.13
-0.4
-0.67
-0.66
-0.42
-0.08
0.26
0.51
0.66
0.71
0.72
0.74
0.79
0.87
0.94
0.94
0.82
0.57
0.23
-0.12
-0.39
-0.49
-0.42
-0.24
-0.03
0.12
0.16
0.11
0
-0.12
-0.21
-0.26
-0.29
-0.31
-0.31
-0.3
-0.29
-0.29
-0.3
-0.29
-0.24
-0.15
-0.05
0
-0.04
-0.16
-0.28
-0.29
-0.1
0.29
0.76
1.13
1.21
0.93
0.36
-0.3
-0.81
-1
-0.84
-0.44
0.01
0.31
0.39
0.29
0.11
-0.04
-0.1
-0.1
-0.09
-0.15
-0.3
-0.53
-0.77
-0.93
-0.96
-0.86
-0.65
-0.4
-0.17
0.05
0.29
0.56
0.86
1.09
1.19
1.1
0.86
0.56
0.34
0.24
0.26
0.31
0.3
0.21
0.04
-0.14
-0.24
-0.23
-0.09
0.11
0.3
0.41
0.43
0.35
0.22
0.04
-0.17
-0.42
-0.72
-1.03
-1.28
-1.4
-1.32
-1.06
-0.73
-0.46
-0.38
-0.54
-0.87
-1.21
-1.41
-1.34
-1.03
-0.61
-0.26
-0.11
-0.2
-0.48
-0.85
-1.21
-1.51
-1.71
-1.8
-1.76
-1.61
-1.38
-1.14
-0.94
-0.82
-0.75
-0.72
-0.67
-0.61
-0.54
-0.5
-0.5
-0.57
-0.69
-0.86
-1.03
-1.16
-1.18
-1.05
-0.76
-0.36
0.1
0.54
0.92
1.22
1.44
1.54
1.5
1.29
0.93
0.51
0.2
0.14
0.38
0.88
1.48
2
2.37
2.6
2.77
2.97
3.19
3.32
3.21
2.8
2.16
1.48
1.02
0.93
1.19
1.61
1.94
2.01
1.77
1.34
0.9
0.61
0.56
0.72
1.01
1.35
1.65
1.85
1.9
1.74
1.39
0.87
0.36
0.08
0.23
0.92
2.08
3.46
4.7
5.55
5.89
5.83
5.66
5.65
5.92
6.39
6.77
6.72
5.99
4.54
2.57
0.42
-1.53
-3.02
-3.97
-4.49
-4.74
-4.87
-4.93
-4.89
-4.75
-4.53
-4.3
-4.14
-4.05
-3.99
-3.91
-3.76
-3.58
-3.44
-3.41
-3.46
-3.51
-3.45
-3.22
-2.87
-2.52
-2.27
-2.2
-2.28
-2.44
-2.65
-2.9
-3.26
-3.78
-4.42
-5.08
-5.58
-5.76
-5.56
-5.03
-4.37
-3.77
-3.38
-3.24
-3.26
-3.29
-3.19
-2.86
-2.3
-1.57
-0.76
0.06
0.81
1.44
1.88
2.06
1.95
1.57
1.05
0.52
0.11
-0.11
-0.15
-0.09
0
0.08
0.14
0.19
0.25
0.32
0.39
0.45
0.49
0.5
0.51
0.51
0.53
0.6
0.74
0.93
1.2
1.55
1.97
2.46
2.96
3.42
3.75
3.87
3.76
3.44
2.99
2.49
2.04
1.69
1.52
1.51
1.64
1.85
2.08
2.3
2.47
2.57
2.58
2.45
2.17
1.78
1.35
1.01
0.83
0.81
0.88
0.9
0.77
0.47
0.06
-0.36
-0.71
-0.94
-1.09
-1.2
-1.3
-1.36
-1.35
-1.24
-1.07
-0.88
-0.77
-0.78
-0.87
-0.99
-1.05
-1.01
-0.91
-0.79
-0.7
-0.64
-0.59
-0.5
-0.33
-0.12
0.05
0.12
0.06
-0.1
-0.28
-0.39
-0.36
-0.17
0.16
0.56
0.97
1.31
1.52
1.57
1.49
1.35
1.24
1.21
1.27
1.36
1.4
1.33
1.14
0.86
0.56
0.25
-0.05
-0.32
-0.54
-0.66
-0.66
-0.56
-0.45
-0.44
-0.56
-0.75
-0.88
-0.84
-0.6
-0.24
0.1
0.29
0.27
0.11
-0.13
-0.37
-0.66
-1.02
-1.46
-1.9
-2.16
-2.08
-1.65
-0.99
-0.35
0.01
0.02
-0.24
-0.54
-0.67
-0.54
-0.26
0.01
0.15
0.11
-0.03
-0.14
-0.15
-0.05
0.07
0.14
0.09
-0.06
-0.24
-0.35
-0.33
-0.17
0.09
0.34
0.52
0.58
0.53
0.4
0.27
0.21
0.23
0.32
0.43
0.52
0.56
0.53
0.45
0.31
0.08
-0.24
-0.59
-0.91
-1.09
-1.09
-0.92
-0.67
-0.45
-0.36
-0.39
-0.48
-0.55
-0.54
-0.47
-0.37
-0.27
-0.2
-0.15
-0.1
-0.01
0.11
0.26
0.39
0.48
0.53
0.55
0.62
0.76
0.97
1.17
1.3
1.3
1.16
0.91
0.58
0.21
-0.13
-0.39
-0.49
-0.4
-0.18
0.06
0.19
0.14
-0.04
-0.2
-0.22
-0.06
0.23
0.51
0.66
0.68
0.61
0.53
0.46
0.31
0.01
-0.48
-1.06
-1.54
-1.7
-1.48
-0.92
-0.23
0.36
0.67
0.66
0.38
-0.03
-0.43
-0.71
-0.85
-0.85
-0.78
-0.69
-0.59
-0.48
-0.35
-0.21
-0.08
0
0.01
-0.04
-0.1
-0.13
-0.13
-0.11
-0.14
-0.23
-0.41
-0.61
-0.78
-0.82
-0.7
-0.4
0.01
0.38
0.57
0.47
0.08
-0.48
-1.03
-1.37
-1.39
-1.11
-0.65
-0.17
0.19
0.41
0.52
0.61
0.72
0.8
0.79
0.61
0.29
-0.05
-0.25
-0.21
0.07
0.46
0.8
0.97
0.95
0.8
0.62
0.48
0.39
0.29
0.14
-0.05
-0.25
-0.38
-0.39
-0.3
-0.11
0.11
0.33
0.5
0.57
0.53
0.38
0.13
-0.16
-0.46
-0.69
-0.82
-0.81
-0.67
-0.41
-0.08
0.23
0.43
0.49
0.44
0.36
0.35
0.43
0.53
0.53
0.39
0.12
-0.15
-0.28
-0.21
0.02
0.25
0.36
0.32
0.18
0.05
0.01
0.09
0.23
0.36
0.45
0.49
0.51
0.51
0.49
0.43
0.29
0.1
-0.09
-0.23
-0.25
-0.17
-0.05
0.01
-0.06
-0.27
-0.57
-0.85
-1.02
-1.05
-0.92
-0.7
-0.41
-0.09
0.22
0.49
0.68
0.77
0.74
0.65
0.53
0.44
0.38
0.34
0.32
0.29
0.26
0.22
0.16
0.08
-0.02
-0.13
-0.22
-0.27
-0.25
-0.14
0.07
0.35
0.61
0.77
0.71
0.39
-0.12
-0.69
-1.14
-1.34
-1.26
-0.98
-0.61
-0.29
-0.07
0.04
0.1
0.12
0.1
0
-0.2
-0.48
-0.77
-0.97
-1.06
-1.06
-1.01
-0.97
-0.96
-0.92
-0.79
-0.54
-0.22
0.11
0.37
0.51
0.57
0.59
0.64
0.72
0.8
0.83
0.79
0.7
0.6
0.52
0.5
0.51
0.52
0.48
0.35
0.14
-0.12
-0.35
-0.51
-0.54
-0.43
-0.23
0.01
0.24
0.39
0.46
0.43
0.32
0.17
0
-0.11
-0.13
-0.03
0.16
0.35
0.49
0.5
0.41
0.26
0.09
-0.05
-0.18
-0.26
-0.3
-0.23
-0.06
0.21
0.49
0.68
0.7
0.57
0.37
0.19
0.08
0.02
-0.04
-0.15
-0.26
-0.32
-0.29
-0.17
-0.06
-0.01
-0.05
-0.16
-0.26
-0.32
-0.36
-0.39
-0.43
-0.45
-0.39
-0.24
-0.03
0.14
0.21
0.17
0.08
0.01
0
0.01
0
-0.07
-0.2
-0.34
-0.41
-0.37
-0.19
0.09
0.41
0.69
0.89
0.99
0.98
0.88
0.71
0.45
0.13
-0.19
-0.45
-0.58
-0.56
-0.45
-0.35
-0.36
-0.49
-0.65
-0.71
-0.59
-0.31
0
0.21
0.25
0.14
0.02
-0.03
0.05
0.17
0.24
0.19
0.04
-0.12
-0.21
-0.2
-0.11
-0.03
0
0.01
0.03
0.1
0.22
0.28
0.2
-0.05
-0.41
-0.74
-0.88
-0.79
-0.5
-0.14
0.15
0.32
0.36
0.33
0.3
0.29
0.31
0.33
0.31
0.29
0.28
0.34
0.47
0.68
0.92
1.11
1.17
1.04
0.7
0.2
-0.34
-0.78
-1.01
-1
-0.8
-0.52
-0.3
-0.18
-0.18
-0.25
-0.33
-0.38
-0.39
-0.34
-0.24
-0.08
0.1
0.27
0.39
0.42
0.33
0.16
-0.03
-0.19
-0.24
-0.21
-0.12
-0.03
0.04
0.1
0.15
0.21
0.24
0.2
0.07
-0.12
-0.3
-0.37
-0.31
-0.14
0.05
0.19
0.26
0.31
0.37
0.45
0.46
0.33
0.03
-0.35
-0.65
-0.73
-0.55
-0.2
0.18
0.44
0.55
0.56
0.54
0.5
0.38
0.12
-0.32
-0.81
-1.16
-1.19
-0.81
-0.14
0.6
1.13
1.31
1.13
0.76
0.4
0.17
0.07
0.01
-0.08
-0.25
-0.4
-0.46
-0.37
-0.17
0.06
0.21
0.26
0.23
0.17
0.12
0.05
-0.08
-0.31
-0.64
-0.98
-1.23
-1.31
-1.16
-0.86
-0.51
-0.28
-0.23
-0.35
-0.54
-0.64
-0.56
-0.29
0.07
0.4
0.6
0.68
0.69
0.68
0.66
0.61
0.5
0.34
0.17
0.04
0
0.06
0.22
0.46
0.69
0.85
0.88
0.75
0.51
0.23
-0.01
-0.15
-0.18
-0.15
-0.09
-0.02
0.08
0.22
0.37
0.47
0.45
0.28
0.02
-0.25
-0.47
-0.62
-0.72
-0.84
-0.97
-1.08
-1.06
-0.84
-0.41
0.12
0.61
0.89
0.88
0.62
0.2
-0.22
-0.51
-0.6
-0.5
-0.29
-0.08
0.05
0.01
-0.17
-0.43
-0.63
-0.64
-0.41
0
0.43
0.71
0.74
0.52
0.18
-0.1
-0.2
-0.12
0.07
0.24
0.3
0.27
0.22
0.25
0.38
0.53
0.59
0.44
0.06
-0.47
-1.03
-1.48
-1.73
-1.79
-1.69
-1.48
-1.17
-0.81
-0.44
-0.16
-0.05
-0.14
-0.37
-0.62
-0.76
-0.73
-0.55
-0.33
-0.13
0.01
0.1
0.16
0.21
0.23
0.21
0.16
0.15
0.23
0.4
0.62
0.8
0.88
0.86
0.8
0.75
0.72
0.67
0.53
0.31
0.09
0
0.13
0.46
0.87
1.17
1.24
1.05
0.72
0.38
0.16
0.05
-0.02
-0.13
-0.33
-0.56
-0.71
-0.73
-0.62
-0.5
-0.46
-0.56
-0.77
-0.99
-1.14
-1.19
-1.15
-1.08
-0.98
-0.88
-0.75
-0.59
-0.43
-0.29
-0.18
-0.1
-0.01
0.1
0.22
0.32
0.39
0.44
0.47
0.51
0.55
0.59
0.62
0.65
0.74
0.91
1.15
1.41
1.61
1.68
1.65
1.61
1.69
1.97
2.42
2.87
3.15
3.14
2.86
2.42
1.96
1.55
1.16
0.67
0.03
-0.7
-1.35
-1.75
-1.81
-1.6
-1.35
-1.27
-1.47
-1.89
-2.36
-2.64
-2.61
-2.25
-1.68
-1.06
-0.54
-0.21
-0.07
-0.04
-0.04
-0.01
0.07
0.16
0.2
0.13
-0.05
-0.26
-0.4
-0.42
-0.33
-0.21
-0.18
-0.3
-0.52
-0.71
-0.74
-0.55
-0.19
0.21
0.5
0.61
0.57
0.48
0.44
0.52
0.66
0.77
0.74
0.53
0.16
-0.23
-0.5
-0.57
-0.41
-0.13
0.16
0.32
0.31
0.17
0
-0.08
0.01
0.24
0.52
0.72
0.74
0.57
0.27
-0.05
-0.27
-0.36
-0.31
-0.19
-0.03
0.1
0.18
0.18
0.04
-0.22
-0.54
-0.8
-0.88
-0.69
-0.31
0.13
0.48
0.65
0.67
0.61
0.57
0.57
0.58
0.56
0.47
0.3
0.09
-0.12
-0.31
-0.46
-0.58
-0.67
-0.72
-0.71
-0.63
-0.51
-0.37
-0.24
-0.17
-0.14
-0.13
-0.07
0.06
0.25
0.45
0.57
0.57
0.47
0.32
0.18
0.09
0.05
0.05
0.09
0.16
0.25
0.33
0.38
0.33
0.17
-0.08
-0.35
-0.53
-0.57
-0.43
-0.15
0.15
0.37
0.45
0.39
0.25
0.07
-0.11
-0.3
-0.5
-0.71
-0.86
-0.89
-0.77
-0.56
-0.35
-0.25
-0.31
-0.5
-0.68
-0.76
-0.66
-0.4
-0.06
0.28
0.54
0.69
0.77
0.79
0.8
0.77
0.69
0.52
0.26
-0.03
-0.28
-0.41
-0.38
-0.22
-0.03
0.13
0.2
0.21
0.19
0.18
0.18
0.2
0.22
0.24
0.25
0.2
0.07
-0.16
-0.47
-0.78
-1
-1.05
-0.9
-0.62
-0.32
-0.09
0.03
0.05
0.04
0.06
0.14
0.27
0.42
0.54
0.61
0.61
0.53
0.39
0.22
0.05
-0.06
-0.08
0
0.14
0.28
0.35
0.34
0.27
0.18
0.12
0.14
0.25
0.44
0.67
0.85
0.9
0.77
0.47
0.07
-0.3
-0.56
-0.65
-0.62
-0.54
-0.49
-0.51
-0.56
-0.55
-0.41
-0.13
0.27
0.69
1.05
1.3
1.43
1.5
1.54
1.6
1.67
1.71
1.67
1.53
1.28
0.94
0.57
0.21
-0.08
-0.25
-0.29
-0.23
-0.15
-0.12
-0.23
-0.48
-0.87
-1.33
-1.76
-2.07
-2.21
-2.18
-2.04
-1.9
-1.84
-1.88
-1.99
-2.12
-2.23
-2.3
-2.36
-2.4
-2.42
-2.37
-2.21
-1.89
-1.4
-0.78
-0.1
0.58
1.17
1.61
1.91
2.1
2.2
2.25
2.21
2.08
1.87
1.68
1.59
1.66
1.85
2.03
2.1
2.04
1.86
1.64
1.42
1.21
0.97
0.71
0.46
0.3
0.26
0.36
0.54
0.75
0.91
0.96
0.85
0.57
0.18
-0.23
-0.55
-0.68
-0.65
-0.54
-0.44
-0.44
-0.52
-0.64
-0.73
-0.75
-0.68
-0.55
-0.35
-0.13
0.1
0.27
0.32
0.25
0.11
-0.02
-0.08
-0.11
-0.17
-0.34
-0.62
-0.87
-0.94
-0.72
-0.26
0.22
0.5
0.42
0.03
-0.45
-0.79
-0.8
-0.53
-0.12
0.22
0.34
0.24
0.03
-0.2
-0.38
-0.49
-0.59
-0.67
-0.72
-0.69
-0.54
-0.29
-0.02
0.16
0.17
0.01
-0.22
-0.38
-0.35
-0.11
0.26
0.59
0.73
0.62
0.31
-0.04
-0.25
-0.2
0.05
0.37
0.59
0.57
0.33
-0.02
-0.37
-0.6
-0.71
-0.72
-0.69
-0.63
-0.54
-0.42
-0.28
-0.17
-0.13
-0.17
-0.28
-0.4
-0.5
-0.56
-0.57
-0.54
-0.51
-0.48
-0.47
-0.48
-0.47
-0.39
-0.21
0.07
0.39
0.67
0.82
0.81
0.67
0.5
0.36
0.27
0.2
0.11
-0.03
-0.21
-0.37
-0.45
-0.4
-0.26
-0.09
0.02
0
-0.13
-0.3
-0.41
-0.39
-0.26
-0.08
0.09
0.19
0.23
0.26
0.34
0.5
0.69
0.84
0.86
0.71
0.42
0.08
-0.17
-0.26
-0.16
0.05
0.25
0.34
0.26
0.07
-0.17
-0.32
-0.33
-0.14
0.23
0.69
1.13
1.42
1.48
1.28
0.87
0.34
-0.17
-0.58
-0.81
-0.87
-0.76
-0.51
-0.17
0.19
0.45
0.54
0.43
0.17
-0.13
-0.37
-0.47
-0.45
-0.38
-0.37
-0.48
-0.7
-0.98
-1.22
-1.33
-1.28
-1.07
-0.76
-0.41
-0.1
0.14
0.28
0.36
0.41
0.49
0.56
0.58
0.51
0.34
0.14
0.05
0.16
0.44
0.74
0.86
0.64
0.11
-0.55
-1.08
-1.29
-1.11
-0.68
-0.18
0.22
0.44
0.53
0.53
0.53
0.52
0.51
0.46
0.35
0.19
-0.02
-0.25
-0.47
-0.66
-0.77
-0.8
-0.73
-0.6
-0.44
-0.3
-0.19
-0.11
-0.04
0.05
0.17
0.28
0.38
0.46
0.53
0.59
0.65
0.7
0.69
0.6
0.44
0.27
0.11
-0.01
-0.11
-0.2
-0.28
-0.36
-0.41
-0.41
-0.37
-0.31
-0.25
-0.24
-0.27
-0.36
-0.46
-0.56
-0.59
-0.5
-0.28
0.02
0.31
0.49
0.48
0.32
0.07
-0.15
-0.24
-0.16
0.1
0.46
0.84
1.13
1.26
1.18
0.91
0.5
0.04
-0.37
-0.68
-0.85
-0.85
-0.7
-0.44
-0.11
0.19
0.39
0.44
0.35
0.16
-0.07
-0.27
-0.41
-0.49
-0.52
-0.51
-0.44
-0.3
-0.09
0.13
0.25
0.24
0.09
-0.09
-0.2
-0.13
0.09
0.36
0.59
0.69
0.68
0.62
0.55
0.47
0.36
0.23
0.11
0.06
0.12
0.26
0.38
0.42
0.35
0.23
0.11
0.04
-0.02
-0.12
-0.28
-0.46
-0.58
-0.59
-0.48
-0.32
-0.19
-0.15
-0.17
-0.21
-0.21
-0.16
-0.11
-0.09
-0.11
-0.14
-0.13
-0.04
0.11
0.27
0.42
0.5
0.54
0.57
0.61
0.67
0.7
0.63
0.44
0.14
-0.18
-0.42
-0.47
-0.3
0.05
0.43
0.71
0.8
0.69
0.43
0.09
-0.26
-0.6
-0.88
-1.03
-1.04
-0.91
-0.77
-0.72
-0.86
-1.16
-1.48
-1.64
-1.53
-1.19
-0.79
-0.55
-0.57
-0.85
-1.23
-1.54
-1.71
-1.74
-1.7
-1.68
-1.71
-1.74
-1.72
-1.61
-1.51
-1.53
-1.83
-2.43
-3.23
-4.06
-4.71
-5.1
-5.3
-5.48
-5.81
-6.31
-6.9
-7.38
-7.56
-7.39
-6.91
-6.28
-5.64
-5.07
-4.58
-4.14
-3.73
-3.39
-3.17
-3.07
-2.97
-2.7
-2.07
-1.01
0.36
1.81
3.07
3.99
4.62
5.15
5.79
6.62
7.52
8.27
8.67
8.63
8.26
7.82
7.52
7.48
7.68
7.99
8.28
8.48
8.57
8.63
8.69
8.8
8.91
8.95
8.85
8.57
8.08
7.41
6.59
5.65
4.61
3.51
2.39
1.31
0.35
-0.39
-0.91
-1.23
-1.45
-1.64
-1.86
-2.09
-2.26
-2.33
-2.27
-2.11
-1.9
-1.7
-1.54
-1.4
-1.23
-0.97
-0.58
-0.06
0.53
1.07
1.43
1.48
1.19
0.56
-0.26
-1.14
-1.95
-2.61
-3.1
-3.42
-3.58
-3.56
-3.38
-3.07
-2.72
-2.41
-2.21
-2.07
-1.93
-1.69
-1.31
-0.81
-0.32
0.05
0.24
0.24
0.13
-0.05
-0.25
-0.49
-0.77
-1.08
-1.4
-1.67
-1.87
-2.03
-2.15
-2.28
-2.42
-2.56
-2.69
-2.83
-2.95
-3.06
-3.09
-3.01
-2.77
-2.45
-2.14
-1.94
-1.87
-1.86
-1.78
-1.49
-0.97
-0.3
0.36
0.88
1.18
1.29
1.28
1.24
1.21
1.15
1.05
0.91
0.76
0.66
0.63
0.65
0.7
0.76
0.81
0.86
0.88
0.86
0.74
0.53
0.27
0.02
-0.16
-0.25
-0.31
-0.42
-0.67
-1.1
-1.75
-2.6
-3.62
-4.74
-5.84
-6.76
-7.36
-7.51
-7.18
-6.41
-5.29
-3.95
-2.56
-1.24
-0.12
0.73
1.3
1.64
1.86
2.09
2.48
3.11
4
5.07
6.19
7.16
7.85
8.12
7.97
7.44
6.69
5.88
5.19
4.73
4.51
4.42
4.32
4.06
3.61
3.04
2.43
1.87
1.34
0.76
0.07
-0.74
-1.58
-2.34
-2.96
-3.44
-3.86
-4.3
-4.79
-5.28
-5.67
-5.88
-5.88
-5.72
-5.51
-5.34
-5.25
-5.21
-5.16
-5.03
-4.76
-4.35
-3.78
-3.1
-2.31
-1.43
-0.51
0.37
1.04
1.39
1.38
1.1
0.75
0.53
0.52
0.64
0.71
0.6
0.29
-0.06
-0.25
-0.17
0.12
0.46
0.66
0.68
0.6
0.59
0.73
0.98
1.21
1.32
1.29
1.21
1.19
1.27
1.41
1.51
1.5
1.38
1.23
1.17
1.23
1.39
1.57
1.68
1.7
1.66
1.65
1.74
1.93
2.21
2.53
2.85
3.14
3.35
3.42
3.3
2.98
2.54
2.11
1.88
1.91
2.19
2.55
2.84
2.93
2.81
2.57
2.35
2.23
2.26
2.41
2.65
2.93
3.2
3.41
3.53
3.55
3.51
3.5
3.65
4
4.52
5.06
5.41
5.47
5.23
4.82
4.4
4.06
3.74
3.35
2.82
2.15
1.44
0.81
0.3
-0.17
-0.67
-1.21
-1.7
-1.99
-1.96
-1.66
-1.22
-0.84
-0.66
-0.69
-0.87
-1.12
-1.4
-1.75
-2.25
-2.95
-3.81
-4.68
-5.37
-5.74
-5.79
-5.62
-5.41
-5.29
-5.29
-5.28
-5.11
-4.65
-3.89
-2.94
-1.94
-1.03
-0.28
0.31
0.72
0.93
0.9
0.62
0.14
-0.46
-1.07
-1.61
-2.07
-2.43
-2.73
-2.96
-3.08
-3.07
-2.89
-2.54
-2.06
-1.53
-1.04
-0.67
-0.42
-0.23
-0.02
0.27
0.65
1.04
1.33
1.43
1.32
1.1
0.94
0.99
1.29
1.75
2.16
2.34
2.17
1.69
1.05
0.48
0.11
0
0.09
0.29
0.52
0.73
0.9
1.03
1.09
1.04
0.87
0.58
0.2
-0.22
-0.62
-0.95
-1.17
-1.23
-1.16
-0.99
-0.8
-0.66
-0.6
-0.63
-0.74
-0.89
-1.03
-1.15
-1.23
-1.3
-1.4
-1.56
-1.78
-2.01
-2.19
-2.24
-2.14
-1.96
-1.8
-1.78
-1.94
-2.23
-2.5
-2.64
-2.59
-2.43
-2.27
-2.24
-2.41
-2.71
-3.01
-3.13
-2.95
-2.47
-1.73
-0.84
0.05
0.87
1.54
2.02
2.28
2.35
2.25
2.05
1.84
1.7
1.65
1.67
1.71
1.69
1.56
1.35
1.14
1.05
1.18
1.57
2.19
2.92
3.63
4.25
4.78
5.35
6.09
7.13
8.48
9.99
11.42
12.47
12.93
12.72
11.91
10.68
9.2
7.57
5.81
3.87
1.75
-0.48
-2.66
-4.6
-6.2
-7.42
-8.35
-9.09
-9.67
-10.04
-10.09
-9.78
-9.18
-8.51
-8.05
-7.99
-8.36
-8.99
-9.58
-9.89
-9.81
-9.46
-9.07
-8.88
-9.01
-9.41
-9.85
-10.09
-9.93
-9.31
-8.25
-6.86
-5.24
-3.51
-1.83
-0.45
0.37
0.43
-0.28
-1.55
-3.02
-4.32
-5.21
-5.57
-5.35
-4.45
-2.66
0.18
4.07
8.66
13.28
17.09
19.45
20.11
19.3
17.62
15.73
14.14
13.08
12.52
12.29
12.2
12.11
11.95
11.67
11.29
10.8
10.23
9.61
8.98
8.36
7.8
7.32
6.98
6.76
6.6
6.38
5.97
5.28
4.31
3.14
1.84
0.45
-1.05
-2.7
-4.47
-6.18
-7.61
-8.51
-8.79
-8.49
-7.8
-6.97
-6.23
-5.73
-5.55
-5.69
-6.1
-6.64
-7.17
-7.53
-7.62
-7.44
-7.01
-6.39
-5.66
-4.84
-4
-3.21
-2.54
-2.05
-1.72
-1.47
-1.18
-0.76
-0.19
0.44
0.99
1.28
1.26
0.96
0.5
0.04
-0.33
-0.59
-0.8
-1.03
-1.31
-1.58
-1.75
-1.75
-1.55
-1.21
-0.82
-0.45
-0.13
0.17
0.44
0.68
0.81
0.77
0.55
0.25
0.01
0
0.26
0.69
1.14
1.39
1.39
1.15
0.82
0.53
0.36
0.29
0.27
0.27
0.31
0.52
0.98
1.73
2.71
3.77
4.75
5.49
5.93
6.08
5.97
5.64
5.13
4.43
3.55
2.48
1.18
-0.37
-2.17
-4.08
-5.86
-7.22
-7.9
-7.88
-7.35
-6.67
-6.16
-5.96
-5.98
-6.02
-5.89
-5.56
-5.16
-4.85
-4.73
-4.78
-4.82
-4.72
-4.4
-3.89
-3.33
-2.79
-2.27
-1.69
-0.91
0.16
1.49
2.94
4.23
5.08
5.27
4.77
3.71
2.36
1.01
-0.1
-0.89
-1.41
-1.77
-2.1
-2.44
-2.8
-3.17
-3.53
-3.85
-4.13
-4.41
-4.74
-5.26
-6.07
-7.2
-8.56
-9.91
-10.96
-11.5
-11.5
-11.16
-10.8
-10.73
-11.13
-12.02
-13.2
-14.28
-14.72
-13.91
-11.33
-6.82
-0.72
6.1
12.49
17.42
20.3
21.13
20.41
18.82
16.9
14.93
12.96
11.01
9.18
7.61
6.46
5.72
5.3
5.03
4.81
4.62
4.54
4.65
4.98
5.49
6.12
6.81
7.55
8.3
9
9.51
9.66
9.36
8.67
7.76
6.89
6.23
5.84
5.63
5.5
5.4
5.39
5.58
6.07
6.84
7.84
9.01
10.38
12.01
13.77
15.23
15.69
14.4
10.95
5.57
-0.84
-7.09
-12.11
-15.39
-17.06
-17.65
-17.72
-17.59
-17.21
-16.39
-15.06
-13.34
-11.59
-10.13
-9.1
-8.38
-7.67
-6.67
-5.27
-3.6
-1.98
-0.78
-0.19
-0.19
-0.52
-0.82
-0.81
-0.37
0.43
1.39
2.24
2.78
2.83
2.3
1.18
-0.4
-2.18
-3.89
-5.28
-6.29
-6.96
-7.43
-7.76
-7.92
-7.84
-7.45
-6.76
-5.79
-4.49
-2.73
-0.33
2.76
6.42
10.25
13.73
16.36
17.83
18.12
17.4
15.97
14.09
11.91
9.46
6.72
3.75
0.75
-2.02
-4.29
-5.92
-6.94
-7.53
-7.86
-8.02
-8
-7.74
-7.23
-6.59
-5.98
-5.6
-5.51
-5.67
-5.97
-6.3
-6.58
-6.82
-7.05
-7.28
-7.46
-7.49
-7.21
-6.53
-5.44
-4.09
-2.76
-1.71
-1.12
-0.94
-0.93
-0.81
-0.38
0.32
1.03
1.46
1.43
0.97
0.23
-0.58
-1.35
-2.06
-2.68
-3.06
-2.93
-2
-0.15
2.44
5.26
7.68
9.23
9.73
9.43
8.78
8.21
7.92
7.82
7.62
7
5.88
4.44
3.04
2
1.44
1.22
1.08
0.77
0.23
-0.42
-0.99
-1.31
-1.36
-1.25
-1.06
-0.81
-0.4
0.26
1.18
2.22
3.13
3.67
3.76
3.49
3.04
2.64
2.41
2.38
2.51
2.75
3.07
3.48
3.93
4.33
4.57
4.54
4.24
3.78
3.28
2.86
2.56
2.35
2.14
1.86
1.48
0.98
0.36
-0.42
-1.37
-2.42
-3.44
-4.25
-4.69
-4.68
-4.28
-3.66
-3.01
-2.54
-2.34
-2.4
-2.6
-2.8
-2.87
-2.73
-2.41
-2.01
-1.65
-1.38
-1.25
-1.24
-1.34
-1.54
-1.83
-2.16
-2.42
-2.47
-2.23
-1.7
-1.02
-0.37
0.08
0.29
0.31
0.26
0.26
0.34
0.47
0.6
0.65
0.59
0.41
0.11
-0.28
-0.71
-1.13
-1.47
-1.67
-1.7
-1.56
-1.28
-0.93
-0.58
-0.29
-0.11
-0.05
-0.09
-0.19
-0.31
-0.42
-0.48
-0.45
-0.3
-0.04
0.27
0.58
0.82
0.96
1
0.95
0.84
0.68
0.47
0.23
0.01
-0.15
-0.23
-0.25
-0.26
-0.31
-0.44
-0.67
-0.95
-1.2
-1.37
-1.44
-1.45
-1.43
-1.43
-1.5
-1.65
-1.88
-2.18
-2.54
-2.92
-3.28
-3.56
-3.7
-3.65
-3.42
-3.03
-2.55
-2.02
-1.51
-1.06
-0.75
-0.6
-0.63
-0.78
-0.92
-0.94
-0.75
-0.32
0.3
1.07
1.96
2.98
4.12
5.33
6.47
7.39
7.97
8.22
8.26
8.32
8.54
8.97
9.47
9.78
9.65
8.98
7.84
6.42
4.98
3.66
2.44
1.24
-0.01
-1.26
-2.34
-3.07
-3.28
-2.93
-2.15
-1.19
-0.41
-0.19
-0.79
-2.2
-4.13
-6.03
-7.41
-7.97
-7.8
-7.26
-6.77
-6.55
-6.57
-6.59
-6.34
-5.74
-4.9
-4.04
-3.33
-2.84
-2.46
-2
-1.33
-0.42
0.64
1.66
2.46
2.93
3.08
3
2.84
2.7
2.63
2.58
2.5
2.33
2.02
1.56
0.99
0.39
-0.14
-0.48
-0.55
-0.36
0.02
0.43
0.72
0.81
0.69
0.45
0.21
0.03
-0.06
-0.15
-0.35
-0.71
-1.26
-1.92
-2.58
-3.13
-3.49
-3.63
-3.54
-3.24
-2.77
-2.17
-1.55
-1.02
-0.68
-0.56
-0.6
-0.68
-0.66
-0.43
0.03
0.65
1.28
1.76
1.99
1.97
1.8
1.6
1.49
1.46
1.46
1.4
1.24
1
0.78
0.64
0.59
0.59
0.56
0.47
0.32
0.16
0.07
0.06
0.13
0.23
0.27
0.24
0.12
-0.05
-0.19
-0.24
-0.16
0.02
0.24
0.4
0.44
0.36
0.19
0.04
0
0.08
0.26
0.44
0.55
0.51
0.34
0.1
-0.12
-0.21
-0.12
0.12
0.45
0.74
0.89
0.85
0.65
0.36
0.07
-0.15
-0.3
-0.43
-0.56
-0.7
-0.8
-0.83
-0.73
-0.54
-0.34
-0.21
-0.27
-0.55
-1
-1.51
-1.93
-2.14
-2.1
-1.9
-1.64
-1.47
-1.46
-1.61
-1.86
-2.13
-2.34
-2.48
-2.56
-2.63
-2.72
-2.84
-2.95
-3.04
-3.11
-3.2
-3.36
-3.57
-3.8
-3.98
-4.03
-3.97
-3.87
-3.77
-3.69
-3.59
-3.39
-3.05
-2.61
-2.15
-1.73
-1.39
-1.09
-0.77
-0.39
0.04
0.51
1.02
1.61
2.29
3.13
4.11
5.18
6.29
7.33
8.19
8.78
9.04
8.91
8.39
7.5
6.33
5.09
4.01
3.35
3.21
3.5
3.94
4.16
3.91
3.11
1.91
0.53
-0.88
-2.26
-3.61
-4.89
-5.95
-6.55
-6.5
-5.72
-4.33
-2.57
-0.73
0.91
2.12
2.72
2.62
1.85
0.62
-0.78
-2.02
-2.9
-3.33
-3.35
-3.04
-2.5
-1.83
-1.15
-0.63
-0.36
-0.38
-0.59
-0.82
-0.9
-0.76
-0.47
-0.16
0.06
0.18
0.29
0.48
0.7
0.76
0.35
-0.75
-2.61
-5.03
-7.68
-10.2
-12.29
-13.82
-14.75
-15.1
-14.93
-14.38
-13.63
-12.85
-12.08
-11.19
-9.97
-8.32
-6.47
-4.88
-4.12
-4.5
-5.94
-7.95
-9.86
-11.14
-11.49
-10.85
-9.31
-6.94
-3.84
-0.18
3.76
7.63
11.1
13.99
16.24
17.91
19.07
19.77
20.08
20.03
19.7
19.16
18.44
17.54
16.44
15.16
13.77
12.41
11.24
10.36
9.8
9.44
9.13
8.72
8.16
7.49
6.8
6.18
5.6
4.98
4.22
3.29
2.24
1.22
0.41
-0.1
-0.32
-0.33
-0.27
-0.24
-0.29
-0.37
-0.39
-0.25
0.11
0.64
1.21
1.72
2.07
2.25
2.29
2.25
2.15
2
1.77
1.49
1.22
1.08
1.17
1.47
1.89
2.25
2.4
2.26
1.88
1.36
0.85
0.43
0.14
-0.06
-0.22
-0.37
-0.52
-0.66
-0.77
-0.86
-0.94
-1.03
-1.2
-1.49
-1.92
-2.43
-2.91
-3.26
-3.49
-3.65
-3.85
-4.16
-4.54
-4.86
-4.96
-4.74
-4.2
-3.49
-2.79
-2.21
-1.81
-1.55
-1.35
-1.18
-1.05
-1.05
-1.27
-1.73
-2.37
-3.05
-3.56
-3.75
-3.53
-2.95
-2.19
-1.47
-0.97
-0.8
-0.92
-1.22
-1.52
-1.7
-1.7
-1.56
-1.36
-1.2
-1.1
-1.07
-1.08
-1.1
-1.13
-1.16
-1.17
-1.12
-0.97
-0.7
-0.37
-0.08
0.09
0.1
0.01
-0.08
-0.04
0.15
0.48
0.83
1.1
1.22
1.17
1.01
0.78
0.54
0.34
0.2
0.11
0.07
0.06
0.08
0.12
0.16
0.2
0.25
0.33
0.45
0.63
0.83
1.03
1.17
1.22
1.19
1.09
1
0.95
0.98
1.07
1.19
1.27
1.27
1.21
1.11
1.02
0.98
0.95
0.89
0.75
0.5
0.14
-0.34
-0.99
-1.84
-2.89
-4.03
-5.08
-5.84
-6.2
-6.18
-5.88
-5.41
-4.77
-3.88
-2.65
-1.04
0.83
2.8
4.69
6.45
8.07
9.55
10.82
11.7
11.99
11.54
10.36
8.65
6.71
4.86
3.3
2.13
1.35
0.88
0.67
0.66
0.72
0.69
0.39
-0.33
-1.46
-2.83
-4.15
-5.14
-5.63
-5.67
-5.49
-5.32
-5.35
-5.59
-5.97
-6.35
-6.62
-6.75
-6.74
-6.59
-6.3
-5.89
-5.37
-4.81
-4.28
-3.86
-3.55
-3.33
-3.11
-2.81
-2.38
-1.84
-1.23
-0.65
-0.17
0.16
0.37
0.53
0.69
0.9
1.11
1.27
1.33
1.32
1.29
1.34
1.48
1.69
1.91
2.11
2.29
2.48
2.67
2.83
2.85
2.66
2.27
1.79
1.35
1.06
0.9
0.83
0.75
0.65
0.6
0.7
1.04
1.59
2.22
2.77
3.12
3.2
3.03
2.66
2.15
1.55
0.9
0.29
-0.2
-0.55
-0.74
-0.85
-1
-1.22
-1.51
-1.78
-1.91
-1.86
-1.66
-1.42
-1.28
-1.28
-1.37
-1.44
-1.34
-1.03
-0.57
-0.09
0.27
0.43
0.4
0.26
0.1
-0.07
-0.28
-0.57
-0.94
-1.28
-1.47
-1.39
-1.03
-0.54
-0.11
0.08
-0.05
-0.41
-0.82
-1.1
-1.15
-0.97
-0.64
-0.27
0.06
0.28
0.41
0.44
0.41
0.31
0.19
0.07
0.01
0.06
0.22
0.47
0.75
0.98
1.1
1.1
0.99
0.84
0.73
0.73
0.89
1.17
1.52
1.79
1.85
1.65
1.21
0.66
0.14
-0.26
-0.55
-0.76
-0.94
-1.05
-1.05
-0.91
-0.67
-0.43
-0.31
-0.35
-0.53
-0.73
-0.85
-0.84
-0.72
-0.55
-0.4
-0.3
-0.25
-0.24
-0.27
-0.35
-0.47
-0.57
-0.57
-0.4
-0.07
0.32
0.64
0.74
0.6
0.32
0.09
0.08
0.32
0.67
0.92
0.91
0.61
0.15
-0.26
-0.49
-0.53
-0.48
-0.42
-0.42
-0.45
-0.46
-0.4
-0.27
-0.1
0.04
0.1
0.08
0
-0.09
-0.13
-0.1
-0.01
0.08
0.09
-0.03
-0.27
-0.55
-0.76
-0.82
-0.7
-0.46
-0.19
0.01
0.11
0.08
-0.02
-0.13
-0.19
-0.15
-0.05
0.02
-0.02
-0.18
-0.43
-0.67
-0.85
-0.96
-1.06
-1.21
-1.42
-1.67
-1.87
-1.98
-1.99
-1.96
-1.93
-1.91
-1.89
-1.87
-1.88
-1.95
-2.09
-2.25
-2.31
-2.13
-1.64
-0.86
0.09
1.03
1.85
2.49
2.98
3.4
3.79
4.16
4.45
4.58
4.51
4.24
3.87
3.48
3.16
2.96
2.91
3.01
3.29
3.78
4.43
5.15
5.76
6.12
6.12
5.74
5.04
4.1
2.98
1.69
0.23
-1.36
-3
-4.53
-5.81
-6.76
-7.35
-7.6
-7.55
-7.25
-6.75
-6.09
-5.32
-4.51
-3.76
-3.12
-2.64
-2.32
-2.08
-1.84
-1.54
-1.15
-0.73
-0.33
0.02
0.34
0.68
1.05
1.41
1.68
1.78
1.69
1.48
1.24
1.08
1.03
1.04
1.06
1.01
0.86
0.61
0.31
0.02
-0.2
-0.33
-0.35
-0.27
-0.14
0.01
0.13
0.23
0.27
0.28
0.24
0.16
0.07
-0.02
-0.05
-0.01
0.13
0.4
0.8
1.31
1.84
2.28
2.49
2.39
2.01
1.46
0.91
0.48
0.25
0.19
0.19
0.16
0.04
-0.16
-0.39
-0.56
-0.67
-0.7
-0.69
-0.67
-0.67
-0.7
-0.77
-0.87
-0.99
-1.13
-1.26
-1.36
-1.4
-1.36
-1.27
-1.14
-1.02
-0.94
-0.88
-0.82
-0.71
-0.53
-0.29
-0.02
0.21
0.34
0.35
0.22
0.03
-0.16
-0.28
-0.28
-0.17
0.03
0.28
0.52
0.73
0.85
0.88
0.82
0.67
0.49
0.34
0.25
0.25
0.32
0.43
0.54
0.63
0.65
0.63
0.55
0.45
0.31
0.14
-0.08
-0.32
-0.5
-0.53
-0.35
0.01
0.42
0.72
0.78
0.61
0.36
0.23
0.33
0.64
0.99
1.15
1
0.55
-0.03
-0.54
-0.84
-0.89
-0.75
-0.53
-0.3
-0.12
0.01
0.11
0.18
0.22
0.21
0.13
-0.05
-0.3
-0.6
-0.86
-1.03
-1.1
-1.09
-1.06
-1.04
-0.98
-0.85
-0.6
-0.26
0.05
0.23
0.23
0.1
-0.07
-0.15
-0.13
-0.04
0.04
0.04
-0.04
-0.14
-0.17
-0.09
0.12
0.39
0.66
0.86
0.95
0.91
0.79
0.63
0.46
0.29
0.1
-0.13
-0.39
-0.61
-0.72
-0.65
-0.43
-0.14
0.11
0.25
0.28
0.26
0.23
0.21
0.17
0.08
-0.04
-0.17
-0.25
-0.25
-0.19
-0.1
0
0.11
0.25
0.43
0.6
0.74
0.8
0.77
0.69
0.58
0.45
0.29
0.11
-0.07
-0.2
-0.2
-0.05
0.22
0.51
0.72
0.76
0.63
0.36
0.02
-0.29
-0.5
-0.59
-0.59
-0.52
-0.46
-0.44
-0.47
-0.54
-0.59
-0.57
-0.49
-0.36
-0.23
-0.12
-0.02
0.08
0.19
0.28
0.3
0.22
0.07
-0.08
-0.15
-0.09
0.05
0.16
0.13
-0.06
-0.37
-0.68
-0.9
-0.99
-0.96
-0.88
-0.78
-0.68
-0.57
-0.44
-0.3
-0.17
-0.09
-0.07
-0.1
-0.16
-0.23
-0.33
-0.46
-0.64
-0.83
-0.99
-1.05
-0.96
-0.75
-0.49
-0.3
-0.25
-0.37
-0.62
-0.93
-1.2
-1.41
-1.51
-1.52
-1.41
-1.24
-1.08
-1.04
-1.22
-1.62
-2.18
-2.74
-3.22
-3.56
-3.84
-4.14
-4.5
-4.9
-5.3
-5.64
-5.95
-6.27
-6.65
-7.06
-7.43
-7.61
-7.48
-7.01
-6.31
-5.6
-5.14
-5.16
-5.66
-6.41
-6.92
-6.54
-4.67
-1.02
4.33
10.85
17.7
23.96
28.78
31.53
31.9
29.92
26.02
20.95
15.65
11
7.57
5.43
4.23
3.39
2.47
1.31
0.04
-1.09
-1.92
-2.47
-2.91
-3.34
-3.8
-4.16
-4.32
-4.27
-4.13
-4.06
-4.17
-4.42
-4.69
-4.83
-4.73
-4.41
-3.96
-3.51
-3.16
-2.93
-2.8
-2.73
-2.66
-2.56
-2.37
-2.08
-1.67
-1.14
-0.55
-0.02
0.33
0.42
0.26
-0.06
-0.38
-0.56
-0.53
-0.37
-0.15
0.03
0.15
0.25
0.41
0.66
0.96
1.22
1.34
1.21
0.86
0.37
-0.14
-0.5
-0.64
-0.54
-0.28
-0.01
0.15
0.15
0.03
-0.13
-0.23
-0.23
-0.14
-0.02
0.09
0.15
0.14
0.07
-0.03
-0.14
-0.2
-0.19
-0.13
-0.09
-0.15
-0.34
-0.61
-0.84
-0.92
-0.83
-0.63
-0.42
-0.28
-0.17
0
0.3
0.72
1.12
1.31
1.18
0.76
0.22
-0.24
-0.46
-0.43
-0.25
-0.06
0.04
0.01
-0.1
-0.21
-0.32
-0.45
-0.63
-0.86
-1.08
-1.18
-1.11
-0.88
-0.57
-0.33
-0.29
-0.46
-0.76
-1.03
-1.11
-0.92
-0.51
-0.01
0.41
0.64
0.65
0.5
0.31
0.18
0.18
0.29
0.45
0.56
0.52
0.29
-0.11
-0.58
-0.98
-1.23
-1.29
-1.23
-1.16
-1.19
-1.37
-1.7
-2.13
-2.63
-3.17
-3.74
-4.29
-4.77
-5.12
-5.35
-5.55
-5.89
-6.6
-7.86
-9.73
-12.1
-14.7
-17.16
-19.06
-20.06
-20.02
-18.95
-17.03
-14.55
-11.76
-8.89
-6.09
-3.46
-1.04
1.19
3.32
5.49
7.83
10.39
13.04
15.5
17.43
18.57
18.84
18.37
17.42
16.29
15.18
14.14
13.14
12.12
11.07
10.06
9.22
8.63
8.29
8.11
7.96
7.75
7.44
7.08
6.79
6.62
6.58
6.62
6.64
6.56
6.35
6.04
5.71
5.46
5.38
5.51
5.87
6.45
7.2
8.02
8.8
9.44
9.87
10.1
10.24
10.45
10.95
11.9
13.32
14.95
16.22
16.33
14.47
10.19
3.59
-4.56
-13.09
-20.74
-26.55
-30.01
-31.07
-30
-27.25
-23.33
-18.87
-14.48
-10.7
-7.81
-5.79
-4.37
-3.2
-2.07
-0.99
-0.09
0.5
0.76
0.82
0.85
0.91
0.94
0.76
0.24
-0.58
-1.5
-2.23
-2.53
-2.36
-1.84
-1.22
-0.72
-0.47
-0.5
-0.72
-1
-1.25
-1.37
-1.35
-1.25
-1.13
-1.08
-1.11
-1.18
-1.18
-1.04
-0.75
-0.4
-0.12
-0.01
-0.09
-0.27
-0.43
-0.49
-0.43
-0.31
-0.2
-0.18
-0.25
-0.37
-0.5
-0.57
-0.54
-0.4
-0.16
0.14
0.43
0.64
0.69
0.57
0.29
-0.08
-0.46
-0.73
-0.83
-0.76
-0.56
-0.32
-0.11
0.01
0.01
-0.12
-0.36
-0.7
-1.06
-1.37
-1.51
-1.4
-1
-0.41
0.21
0.66
0.82
0.68
0.34
-0.02
-0.28
-0.37
-0.3
-0.14
0.03
0.16
0.22
0.2
0.14
0.08
0.06
0.11
0.25
0.44
0.63
0.77
0.82
0.78
0.66
0.51
0.38
0.31
0.32
0.41
0.56
0.76
1
1.28
1.58
1.84
1.99
1.97
1.77
1.43
1.01
0.59
0.21
-0.12
-0.43
-0.75
-1.08
-1.4
-1.68
-1.85
-1.87
-1.71
-1.41
-1.03
-0.7
-0.5
-0.51
-0.71
-1.01
-1.28
-1.41
-1.33
-1.07
-0.73
-0.47
-0.4
-0.55
-0.86
-1.21
-1.49
-1.6
-1.53
-1.33
-1.04
-0.73
-0.41
-0.07
0.26
0.56
0.74
0.75
0.57
0.26
-0.07
-0.26
-0.25
-0.02
0.35
0.72
0.96
1.02
0.92
0.72
0.53
0.38
0.31
0.31
0.38
0.52
0.74
0.99
1.2
1.31
1.27
1.09
0.86
0.67
0.59
0.61
0.67
0.7
0.65
0.57
0.53
0.62
0.84
1.1
1.24
1.11
0.65
-0.1
-0.96
-1.69
-2.13
-2.2
-1.99
-1.67
-1.4
-1.29
-1.34
-1.45
-1.54
-1.5
-1.34
-1.1
-0.83
-0.56
-0.27
0.08
0.52
1.03
1.53
1.92
2.12
2.08
1.82
1.38
0.83
0.26
-0.25
-0.65
-0.88
-0.94
-0.88
-0.77
-0.68
-0.66
-0.71
-0.82
-0.9
-0.9
-0.79
-0.58
-0.33
-0.15
-0.09
-0.17
-0.37
-0.59
-0.77
-0.83
-0.78
-0.62
-0.41
-0.23
-0.15
-0.21
-0.4
-0.68
-0.97
-1.23
-1.42
-1.58
-1.75
-1.95
-2.2
-2.49
-2.8
-3.11
-3.38
-3.62
-3.82
-3.99
-4.18
-4.43
-4.72
-5.04
-5.33
-5.59
-5.83
-6.15
-6.63
-7.3
-8.09
-8.85
-9.44
-9.77
-9.83
-9.72
-9.52
-9.39
-9.44
-9.8
-10.55
-11.66
-12.95
-14.14
-14.92
-15.15
-14.85
-14.26
-13.63
-13.1
-12.65
-12.13
-11.39
-10.39
-9.17
-7.89
-6.67
-5.58
-4.61
-3.7
-2.8
-1.87
-0.94
-0.08
0.61
1.04
1.17
1.04
0.74
0.42
0.16
-0.02
-0.18
-0.52
-1.19
-2.33
-3.89
-5.6
-6.98
-7.48
-6.55
-3.9
0.45
6.14
12.52
18.86
24.44
28.73
31.42
32.46
32.01
30.4
28.04
25.36
22.74
20.45
18.62
17.2
16.04
14.94
13.8
12.63
11.5
10.52
9.74
9.13
8.62
8.16
7.7
7.25
6.76
6.2
5.52
4.72
3.87
3.08
2.46
2.06
1.82
1.64
1.43
1.16
0.81
0.42
-0.01
-0.43
-0.79
-1.01
-1.06
-0.93
-0.7
-0.48
-0.37
-0.38
-0.5
-0.66
-0.8
-0.91
-0.98
-1.01
-0.99
-0.94
-0.87
-0.84
-0.87
-0.94
-0.97
-0.88
-0.63
-0.29
0.08
0.35
0.49
0.51
0.45
0.33
0.13
-0.17
-0.54
-0.89
-1.1
-1.08
-0.83
-0.49
-0.23
-0.21
-0.49
-0.99
-1.53
-1.95
-2.09
-1.96
-1.65
-1.27
-0.94
-0.7
-0.55
-0.48
-0.47
-0.52
-0.61
-0.67
-0.6
-0.31
0.24
0.94
1.6
2.01
2.08
1.82
1.37
0.89
0.45
0.06
-0.35
-0.8
-1.26
-1.66
-1.93
-2.08
-2.14
-2.2
-2.27
-2.32
-2.3
-2.18
-1.95
-1.65
-1.3
-0.9
-0.46
0.03
0.51
0.92
1.19
1.33
1.33
1.21
0.99
0.64
0.2
-0.29
-0.69
-0.86
-0.72
-0.26
0.4
1.13
1.79
2.32
2.69
2.89
2.92
2.77
2.45
2.01
1.56
1.22
1.04
1.02
1.08
1.09
0.95
0.64
0.21
-0.26
-0.66
-0.9
-0.93
-0.78
-0.49
-0.15
0.16
0.36
0.43
0.41
0.35
0.28
0.2
0.08
-0.07
-0.23
-0.31
-0.21
0.09
0.54
1.01
1.36
1.49
1.42
1.19
0.89
0.6
0.36
0.18
0.09
0.07
0.12
0.2
0.28
0.33
0.34
0.3
0.2
0.04
-0.15
-0.33
-0.45
-0.46
-0.37
-0.23
-0.09
0.04
0.17
0.28
0.35
0.36
0.29
0.14
-0.06
-0.23
-0.36
-0.44
-0.49
-0.53
-0.54
-0.52
-0.43
-0.27
-0.06
0.16
0.3
0.3
0.13
-0.16
-0.46
-0.63
-0.58
-0.32
0.03
0.28
0.3
0.08
-0.27
-0.56
-0.63
-0.45
-0.12
0.18
0.31
0.23
0
-0.23
-0.36
-0.37
-0.31
-0.24
-0.18
-0.13
-0.05
0.07
0.18
0.23
0.19
0.1
0
-0.05
-0.04
-0.01
0
-0.01
-0.03
-0.02
0.05
0.19
0.34
0.46
0.51
0.46
0.34
0.2
0.09
0.06
0.11
0.19
0.22
0.17
0
-0.22
-0.43
-0.57
-0.61
-0.55
-0.4
-0.17
0.12
0.43
0.71
0.91
0.97
0.89
0.72
0.51
0.35
0.26
0.24
0.24
0.22
0.14
0.02
-0.13
-0.27
-0.36
-0.37
-0.31
-0.2
-0.05
0.08
0.17
0.19
0.13
0
-0.14
-0.22
-0.2
-0.06
0.17
0.39
0.5
0.44
0.2
-0.15
-0.51
-0.75
-0.81
-0.67
-0.39
-0.11
0.05
0.04
-0.12
-0.3
-0.35
-0.19
0.14
0.5
0.69
0.56
0.15
-0.4
-0.83
-0.98
-0.79
-0.38
0.08
0.43
0.63
0.7
0.74
0.78
0.8
0.73
0.54
0.24
-0.05
-0.26
-0.33
-0.3
-0.27
-0.3
-0.41
-0.59
-0.8
-1.02
-1.21
-1.32
-1.31
-1.14
-0.85
-0.5
-0.22
-0.06
-0.03
-0.03
0.04
0.24
0.56
0.89
1.12
1.16
1.02
0.78
0.58
0.54
0.69
0.96
1.21
1.3
1.17
0.87
0.49
0.15
-0.11
-0.28
-0.43
-0.56
-0.64
-0.62
-0.47
-0.24
-0.03
0.05
-0.07
-0.31
-0.55
-0.67
-0.62
-0.49
-0.42
-0.52
-0.75
-1.02
-1.15
-1.06
-0.75
-0.36
-0.01
0.2
0.28
0.29
0.32
0.37
0.44
0.43
0.33
0.16
0
-0.04
0.04
0.22
0.39
0.5
0.49
0.42
0.32
0.23
0.12
-0.01
-0.18
-0.34
-0.42
-0.38
-0.26
-0.12
-0.03
0.02
0.09
0.24
0.43
0.56
0.49
0.17
-0.29
-0.7
-0.86
-0.69
-0.3
0.13
0.41
0.47
0.36
0.16
-0.03
-0.15
-0.17
-0.06
0.17
0.49
0.79
0.96
0.94
0.71
0.37
0.03
-0.2
-0.29
-0.25
-0.12
0.03
0.15
0.2
0.15
0.04
-0.09
-0.2
-0.25
-0.25
-0.23
-0.22
-0.23
-0.25
-0.28
-0.31
-0.38
-0.49
-0.65
-0.82
-0.94
-0.96
-0.87
-0.7
-0.53
-0.44
-0.46
-0.55
-0.65
-0.65
-0.51
-0.26
0.03
0.29
0.5
0.65
0.79
0.97
1.17
1.34
1.41
1.35
1.16
0.88
0.55
0.22
-0.04
-0.2
-0.24
-0.15
0.04
0.27
0.5
0.68
0.76
0.73
0.57
0.3
-0.01
-0.3
-0.51
-0.61
-0.62
-0.57
-0.48
-0.33
-0.11
0.2
0.56
0.88
1.08
1.08
0.89
0.58
0.22
-0.1
-0.32
-0.4
-0.37
-0.28
-0.23
-0.31
-0.55
-0.92
-1.32
-1.62
-1.73
-1.65
-1.44
-1.19
-0.94
-0.7
-0.43
-0.14
0.13
0.31
0.36
0.26
0.07
-0.15
-0.37
-0.56
-0.7
-0.76
-0.68
-0.46
-0.13
0.21
0.45
0.54
0.52
0.48
0.51
0.63
0.79
0.9
0.93
0.9
0.84
0.77
0.66
0.46
0.15
-0.2
-0.47
-0.53
-0.37
-0.07
0.2
0.33
0.26
0.1
-0.06
-0.11
-0.06
0.02
0.06
0.02
-0.09
-0.19
-0.26
-0.32
-0.42
-0.59
-0.81
-0.97
-0.96
-0.7
-0.22
0.35
0.81
1.04
0.99
0.73
0.42
0.16
0.01
-0.06
-0.09
-0.1
-0.06
0.08
0.32
0.6
0.83
0.89
0.79
0.59
0.39
0.28
0.27
0.31
0.3
0.19
0.01
-0.15
-0.21
-0.15
-0.02
0.07
0.04
-0.11
-0.32
-0.5
-0.59
-0.57
-0.46
-0.3
-0.12
0.04
0.14
0.15
0.06
-0.1
-0.31
-0.5
-0.65
-0.78
-0.86
-0.9
-0.83
-0.6
-0.22
0.27
0.74
1.06
1.16
1.07
0.89
0.75
0.71
0.74
0.74
0.6
0.26
-0.21
-0.73
-1.17
-1.46
-1.58
-1.55
-1.37
-1.05
-0.6
-0.1
0.35
0.66
0.8
0.81
0.76
0.71
0.69
0.67
0.65
0.63
0.62
0.64
0.65
0.61
0.5
0.36
0.23
0.18
0.24
0.36
0.47
0.51
0.44
0.27
0.03
-0.25
-0.56
-0.86
-1.08
-1.16
-1.03
-0.73
-0.31
0.1
0.41
0.54
0.53
0.42
0.28
0.15
0.07
0.06
0.14
0.28
0.45
0.56
0.55
0.4
0.17
-0.05
-0.16
-0.14
-0.06
0
-0.04
-0.21
-0.48
-0.76
-1.02
-1.21
-1.29
-1.26
-1.1
-0.84
-0.51
-0.17
0.08
0.22
0.22
0.12
-0.01
-0.11
-0.16
-0.12
0.01
0.21
0.43
0.64
0.78
0.76
0.58
0.25
-0.15
-0.49
-0.68
-0.69
-0.58
-0.47
-0.49
-0.64
-0.84
-0.95
-0.85
-0.58
-0.26
-0.04
-0.02
-0.16
-0.31
-0.34
-0.21
0.01
0.21
0.3
0.26
0.14
0.01
-0.08
-0.13
-0.13
-0.05
0.13
0.38
0.63
0.8
0.78
0.58
0.25
-0.08
-0.3
-0.36
-0.28
-0.15
-0.02
0.08
0.19
0.32
0.46
0.57
0.55
0.38
0.1
-0.16
-0.28
-0.2
0.05
0.31
0.44
0.37
0.12
-0.17
-0.37
-0.36
-0.16
0.21
0.65
1.05
1.33
1.46
1.44
1.33
1.18
1.03
0.89
0.7
0.44
0.11
-0.23
-0.48
-0.56
-0.44
-0.18
0.08
0.24
0.22
0.07
-0.12
-0.25
-0.24
-0.11
0.07
0.21
0.24
0.13
-0.08
-0.33
-0.54
-0.68
-0.73
-0.7
-0.61
-0.48
-0.33
-0.18
-0.04
0.04
0.03
-0.07
-0.23
-0.38
-0.44
-0.36
-0.17
0.06
0.25
0.37
0.43
0.47
0.5
0.49
0.4
0.2
-0.1
-0.41
-0.64
-0.72
-0.66
-0.55
-0.5
-0.56
-0.72
-0.9
-1
-0.98
-0.83
-0.57
-0.27
0.06
0.38
0.69
0.99
1.21
1.33
1.3
1.12
0.83
0.53
0.27
0.11
0.04
0.01
0
-0.03
-0.07
-0.09
-0.07
-0.01
0.03
0.03
-0.06
-0.23
-0.4
-0.53
-0.54
-0.44
-0.25
-0.05
0.12
0.18
0.16
0.12
0.13
0.26
0.46
0.64
0.69
0.52
0.19
-0.18
-0.45
-0.52
-0.4
-0.16
0.12
0.4
0.66
0.92
1.17
1.34
1.37
1.25
1.05
0.88
0.89
1.11
1.47
1.84
2.05
2.03
1.77
1.36
0.92
0.54
0.24
0.07
0.06
0.22
0.54
0.93
1.23
1.32
1.18
0.91
0.66
0.59
0.75
1.11
1.54
1.94
2.25
2.44
2.53
2.57
2.7
3.02
3.65
4.58
5.66
6.68
7.45
7.88
8.07
8.23
8.61
9.4
10.67
12.3
14.07
15.72
17.11
18.21
19.23
20.44
22.03
24
26.1
27.9
28.89
28.55
26.44
22.32
16.26
8.82
0.97
-6.09
-11.33
-14.23
-14.91
-13.96
-12.09
-9.79
-7.27
-4.55
-1.76
0.78
2.62
3.43
3.22
2.32
1.21
0.25
-0.43
-0.96
-1.57
-2.5
-3.85
-5.66
-7.91
-10.49
-13.22
-15.82
-18.02
-19.62
-20.71
-21.53
-22.37
-23.34
-24.28
-24.82
-24.67
-23.84
-22.64
-21.48
-20.64
-20
-19.2
-17.83
-15.77
-13.28
-10.96
-9.43
-9.06
-9.78
-11.15
-12.53
-13.38
-13.43
-12.71
-11.5
-10.16
-8.93
-7.9
-7
-6.17
-5.51
-5.3
-5.92
-7.68
-10.55
-14.15
-17.81
-20.81
-22.72
-23.65
-24.25
-25.47
-28.14
-32.49
-38.06
-43.73
-48.3
-50.91
-51.46
-50.55
-49.24
-48.63
-49.61
-52.78
-58.29
-65.51
-72.59
-76.4
-73.28
-60.46
-37.66
-7.8
23.73
51.08
70.22
80.4
83.79
83.92
83.67
84.02
84.35
83.41
80.61
76.34
71.46
66.44
60.9
53.89
44.83
34.27
24.11
16.97
14.93
18.55
26.53
36.21
44.68
49.77
50.7
48.07
43.44
38.67
35.34
34.29
35.5
38.17
41.08
43.13
43.76
43.14
42.11
41.74
43.05
46.78
53.28
62.18
71.9
79.47
80.95
72.84
53.79
25.78
-6.14
-35.64
-57.51
-69.55
-72.96
-71
-67.08
-63.23
-59.81
-56.24
-52.16
-47.94
-44.53
-42.66
-42.33
-42.73
-42.67
-41.15
-37.89
-33.42
-28.74
-24.83
-22.26
-20.96
-20.35
-19.68
-18.35
-16.18
-13.45
-10.71
-8.56
-7.35
-7.08
-7.39
-7.71
-7.56
-6.68
-5.2
-3.54
-2.18
-1.46
-1.44
-1.87
-2.35
-2.58
-2.41
-1.93
-1.33
-0.79
-0.4
-0.2
-0.15
-0.25
-0.49
-0.85
-1.29
-1.72
-2.06
-2.24
-2.23
-2.03
-1.7
-1.31
-0.95
-0.71
-0.67
-0.83
-1.11
-1.41
-1.62
-1.69
-1.61
-1.44
-1.23
-1.03
-0.87
-0.73
-0.64
-0.58
-0.54
-0.48
-0.4
-0.31
-0.24
-0.23
-0.3
-0.45
-0.63
-0.8
-0.92
-1.01
-1.08
-1.12
-1.13
-1.1
-1.03
-0.95
-0.89
-0.86
-0.83
-0.75
-0.6
-0.38
-0.14
0.07
0.24
0.37
0.5
0.61
0.68
0.69
0.61
0.51
0.44
0.48
0.62
0.82
0.99
1.08
1.09
1.03
0.95
0.84
0.69
0.46
0.19
-0.06
-0.21
-0.2
-0.03
0.22
0.44
0.52
0.4
0.13
-0.14
-0.26
-0.16
0.17
0.61
1.02
1.28
1.35
1.27
1.11
0.96
0.84
0.74
0.62
0.44
0.23
0.06
0.01
0.11
0.32
0.55
0.71
0.71
0.58
0.36
0.16
0.07
0.1
0.25
0.45
0.6
0.65
0.55
0.33
0.05
-0.22
-0.4
-0.44
-0.36
-0.22
-0.11
-0.08
-0.18
-0.37
-0.61
-0.84
-1.01
-1.1
-1.11
-1.06
-0.99
-0.9
-0.81
-0.73
-0.67
-0.66
-0.71
-0.83
-0.99
-1.17
-1.29
-1.29
-1.17
-0.99
-0.88
-0.94
-1.23
-1.67
-2.09
-2.31
-2.25
-2.04
-1.94
-2.24
-3.11
-4.44
-5.91
-7.1
-7.71
-7.73
-7.48
-7.51
-8.35
-10.27
-13.06
-16.09
-18.52
-19.64
-19.27
-17.95
-16.72
-16.73
-18.64
-22.22
-26.35
-29.57
-30.76
-29.79
-27.55
-25.59
-25.33
-27.46
-31.78
-37.47
-43.38
-48
-49.34
-44.84
-32.11
-10.09
19.85
53.71
85.99
111.78
128.79
138.02
142.57
145.19
146
142.03
128.78
103.18
65.94
22.05
-21.14
-56.94
-81.86
-96.39
-103.87
-108.17
-111.67
-114.73
-116.53
-116.59
-115.76
-115.87
-118.07
-121.25
-121.54
-113.67
-93.6
-61.02
-20.29
20.96
54.85
76.42
85.27
84.96
80.8
77.19
76.13
77.2
78.77
79.33
78.33
76.2
73.94
72.53
72.6
74.16
76.69
79.35
81.34
82.19
81.95
81.16
80.58
80.9
82.71
86.51
92.69
101.01
109.9
116.04
114.79
101.87
75.46
37.73
-5.32
-45.87
-77.24
-96.18
-103.51
-102.86
-98.46
-93.22
-88.24
-83.31
-78.13
-72.93
-68.45
-65.28
-63.35
-61.76
-59.22
-54.73
-48.19
-40.43
-32.94
-27.19
-23.95
-23.03
-23.41
-23.82
-23.32
-21.79
-19.85
-18.49
-18.5
-20.07
-22.64
-25.2
-26.7
-26.55
-24.8
-22.02
-19.01
-16.4
-14.44
-13.03
-11.89
-10.79
-9.59
-8.14
-6.22
-3.48
0.38
5.42
11.27
17.23
22.48
26.29
28.18
27.95
25.67
21.72
16.68
11.33
6.44
2.42
-0.85
-4.04
-8.15
-14.05
-22.05
-31.82
-42.35
-52.34
-60.64
-66.57
-70.02
-71.45
-71.65
-71.55
-72.04
-73.7
-76.32
-78.44
-77.36
-69.98
-54.23
-30.5
-2.1
25.78
48.17
62.43
69.04
70.79
70.77
70.58
69.85
67.2
61.75
54.17
46.47
40.79
38.21
38.28
39.55
40.63
41
41.14
42.05
44.44
48.15
52.24
55.44
56.79
56.11
53.99
51.47
49.53
48.64
48.66
48.98
48.96
48.25
47.01
45.89
45.8
47.58
51.69
57.91
65.09
70.99
72.71
67.5
53.98
33.04
7.91
-16.85
-36.9
-49.74
-55.34
-55.68
-53.52
-51
-49.05
-47.54
-45.99
-44.22
-42.52
-41.39
-41.01
-41.05
-40.76
-39.4
-36.65
-32.81
-28.72
-25.35
-23.32
-22.7
-22.96
-23.26
-22.84
-21.37
-19.03
-16.39
-14.15
-12.79
-12.37
-12.57
-12.82
-12.58
-11.55
-9.83
-7.74
-5.76
-4.26
-3.39
-3.07
-3.03
-3.01
-2.79
-2.31
-1.61
-0.81
-0.08
0.45
0.68
0.62
0.37
0.1
-0.02
0.09
0.39
0.79
1.14
1.37
1.46
1.42
1.28
1.04
0.71
0.32
-0.08
-0.4
-0.6
-0.65
-0.61
-0.54
-0.53
-0.65
-0.97
-1.51
-2.26
-3.13
-3.94
-4.5
-4.7
-4.59
-4.3
-4.06
-4.01
-4.16
-4.43
-4.69
-4.89
-5.03
-5.19
-5.35
-5.46
-5.4
-5.09
-4.6
-4.08
-3.73
-3.6
-3.6
-3.5
-3.09
-2.3
-1.25
-0.22
0.53
0.85
0.74
0.33
-0.2
-0.73
-1.15
-1.41
-1.37
-0.85
0.33
2.27
4.89
7.91
10.88
13.32
14.87
15.38
14.95
13.86
12.46
11.07
9.85
8.81
7.86
6.84
5.68
4.4
3.15
2.08
1.29
0.75
0.33
-0.11
-0.63
-1.21
-1.72
-2.06
-2.17
-2.12
-2
-1.92
-1.92
-2.03
-2.23
-2.47
-2.72
-2.92
-2.98
-2.86
-2.55
-2.17
-1.85
-1.74
-1.88
-2.23
-2.65
-2.97
-3.08
-2.94
-2.62
-2.2
-1.79
-1.45
-1.2
-1.06
-0.98
-0.93
-0.89
-0.81
-0.7
-0.57
-0.44
-0.32
-0.24
-0.23
-0.3
-0.46
-0.65
-0.76
-0.72
-0.48
-0.13
0.19
0.32
0.23
-0.01
-0.23
-0.32
-0.23
-0.05
0.14
0.22
0.21
0.14
0.06
0.01
0.01
0.07
0.21
0.41
0.67
0.87
0.94
0.78
0.43
-0.03
-0.47
-0.8
-0.96
-0.94
-0.79
-0.58
-0.36
-0.18
-0.06
-0.02
-0.04
-0.1
-0.17
-0.22
-0.2
-0.08
0.12
0.34
0.47
0.43
0.2
-0.13
-0.42
-0.57
-0.52
-0.32
-0.03
0.28
0.57
0.81
0.96
0.98
0.86
0.61
0.32
0.05
-0.13
-0.25
-0.34
-0.44
-0.55
-0.65
-0.71
-0.7
-0.63
-0.46
-0.2
0.14
0.49
0.75
0.81
0.66
0.39
0.16
0.11
0.29
0.65
1.01
1.22
1.17
0.89
0.44
-0.07
-0.53
-0.86
-0.97
-0.84
-0.49
0.01
0.48
0.81
0.89
0.73
0.42
0.09
-0.16
-0.29
-0.33
-0.34
-0.35
-0.39
-0.43
-0.49
-0.55
-0.64
-0.76
-0.89
-0.96
-0.93
-0.77
-0.54
-0.32
-0.2
-0.25
-0.45
-0.74
-1.03
-1.22
-1.25
-1.07
-0.68
-0.15
0.42
0.89
1.15
1.14
0.94
0.64
0.41
0.33
0.43
0.63
0.81
0.85
0.72
0.47
0.2
-0.01
-0.14
-0.22
-0.3
-0.38
-0.41
-0.32
-0.06
0.33
0.75
1.05
1.13
0.97
0.65
0.31
0.06
-0.02
0.04
0.16
0.26
0.27
0.17
-0.01
-0.24
-0.47
-0.69
-0.89
-1.05
-1.14
-1.12
-0.94
-0.62
-0.2
0.22
0.57
0.76
0.77
0.64
0.43
0.21
0.06
0
0.03
0.12
0.21
0.28
0.31
0.31
0.34
0.42
0.54
0.66
0.71
0.62
0.4
0.08
-0.24
-0.45
-0.5
-0.39
-0.18
0.04
0.19
0.2
0.07
-0.15
-0.38
-0.53
-0.58
-0.5
-0.36
-0.21
-0.13
-0.15
-0.29
-0.5
-0.73
-0.9
-0.94
-0.86
-0.69
-0.51
-0.38
-0.35
-0.4
-0.48
-0.54
-0.58
-0.61
-0.68
-0.78
-0.86
-0.88
-0.77
-0.53
-0.21
0.11
0.32
0.39
0.35
0.29
0.32
0.51
0.83
1.2
1.52
1.72
1.83
1.87
1.89
1.87
1.72
1.38
0.85
0.25
-0.27
-0.59
-0.66
-0.57
-0.43
-0.3
-0.18
0
0.31
0.74
1.2
1.54
1.67
1.57
1.3
0.96
0.62
0.31
0.01
-0.29
-0.59
-0.84
-1
-1
-0.84
-0.53
-0.19
0.08
0.14
-0.06
-0.44
-0.87
-1.17
-1.24
-1.11
-0.89
-0.73
-0.71
-0.8
-0.92
-0.94
-0.86
-0.72
-0.62
-0.6
-0.66
-0.71
-0.68
-0.54
-0.33
-0.13
0
0.04
-0.01
-0.09
-0.16
-0.2
-0.2
-0.13
-0.01
0.18
0.42
0.67
0.85
0.87
0.7
0.36
-0.05
-0.41
-0.62
-0.64
-0.5
-0.29
-0.06
0.17
0.4
0.64
0.87
1.05
1.13
1.08
0.9
0.63
0.36
0.16
0.06
0.09
0.21
0.36
0.45
0.44
0.35
0.19
0.03
-0.12
-0.25
-0.36
-0.44
-0.43
-0.27
0.06
0.53
0.97
1.21
1.12
0.68
0.01
-0.67
-1.14
-1.29
-1.13
-0.8
-0.47
-0.24
-0.13
-0.06
0.06
0.26
0.51
0.73
0.85
0.86
0.81
0.7
0.51
0.23
-0.17
-0.62
-1.01
-1.2
-1.15
-0.88
-0.54
-0.26
-0.12
-0.1
-0.12
-0.12
-0.06
0.02
0.04
-0.05
-0.24
-0.47
-0.69
-0.8
-0.8
-0.7
-0.52
-0.3
-0.04
0.25
0.55
0.85
1.08
1.16
1.05
0.76
0.36
0.01
-0.18
-0.12
0.18
0.62
1
1.18
1.09
0.78
0.38
0.05
-0.14
-0.2
-0.2
-0.24
-0.3
-0.34
-0.3
-0.17
-0.06
-0.09
-0.33
-0.73
-1.12
-1.33
-1.28
-1.01
-0.66
-0.38
-0.22
-0.13
-0.03
0.14
0.35
0.52
0.56
0.47
0.33
0.25
0.31
0.53
0.85
1.18
1.41
1.47
1.33
1.01
0.56
0.08
-0.35
-0.63
-0.75
-0.71
-0.56
-0.38
-0.21
-0.07
0.04
0.11
0.12
0.05
-0.1
-0.31
-0.53
-0.69
-0.73
-0.62
-0.37
-0.03
0.35
0.72
1.02
1.25
1.42
1.54
1.63
1.68
1.65
1.48
1.13
0.66
0.16
-0.23
-0.39
-0.32
-0.08
0.2
0.41
0.48
0.41
0.25
0.05
-0.15
-0.35
-0.52
-0.64
-0.67
-0.58
-0.33
0.04
0.45
0.83
1.08
1.17
1.13
1.03
0.95
0.92
0.93
0.93
0.87
0.78
0.7
0.71
0.82
0.99
1.12
1.13
0.98
0.71
0.39
0.05
-0.26
-0.55
-0.84
-1.11
-1.35
-1.54
-1.68
-1.79
-1.9
-2.02
-2.14
-2.26
-2.34
-2.36
-2.28
-2.09
-1.8
-1.42
-1.02
-0.64
-0.38
-0.27
-0.33
-0.53
-0.77
-0.93
-0.91
-0.68
-0.35
-0.05
0.09
0.03
-0.16
-0.35
-0.42
-0.35
-0.21
-0.09
-0.06
-0.06
0
0.18
0.49
0.82
1.02
0.99
0.74
0.38
0.07
-0.06
0.02
0.23
0.45
0.54
0.44
0.16
-0.21
-0.57
-0.83
-0.97
-0.98
-0.93
-0.84
-0.72
-0.54
-0.32
-0.06
0.18
0.33
0.38
0.36
0.34
0.38
0.46
0.5
0.43
0.22
-0.05
-0.26
-0.29
-0.14
0.13
0.41
0.62
0.74
0.81
0.88
0.96
1.02
1
0.83
0.53
0.13
-0.27
-0.55
-0.61
-0.46
-0.18
0.06
0.12
-0.03
-0.29
-0.5
-0.53
-0.38
-0.14
0.04
0.08
0.02
-0.03
0.04
0.21
0.38
0.41
0.27
0.01
-0.2
-0.25
-0.12
0.08
0.2
0.13
-0.1
-0.38
-0.55
-0.51
-0.3
-0.01
0.21
0.26
0.16
-0.02
-0.16
-0.18
-0.09
0.05
0.17
0.22
0.21
0.18
0.13
0.06
-0.08
-0.32
-0.61
-0.87
-0.96
-0.82
-0.44
0.08
0.55
0.82
0.83
0.61
0.29
0.01
-0.13
-0.11
0.04
0.22
0.4
0.53
0.62
0.67
0.68
0.63
0.5
0.33
0.18
0.12
0.18
0.34
0.49
0.55
0.45
0.23
-0.04
-0.27
-0.41
-0.49
-0.53
-0.54
-0.5
-0.38
-0.18
0.03
0.16
0.13
-0.04
-0.32
-0.58
-0.77
-0.83
-0.78
-0.63
-0.42
-0.16
0.09
0.28
0.34
0.27
0.07
-0.16
-0.33
-0.32
-0.13
0.21
0.55
0.75
0.74
0.55
0.28
0.09
0.07
0.2
0.39
0.5
0.47
0.29
0.06
-0.13
-0.24
-0.29
-0.34
-0.41
-0.51
-0.58
-0.56
-0.4
-0.16
0.07
0.19
0.14
-0.05
-0.28
-0.44
-0.47
-0.37
-0.23
-0.14
-0.14
-0.23
-0.33
-0.36
-0.27
-0.07
0.18
0.35
0.37
0.24
0.04
-0.1
-0.07
0.18
0.6
1.1
1.54
1.82
1.86
1.67
1.27
0.75
0.2
-0.29
-0.66
-0.9
-1
-0.98
-0.86
-0.66
-0.41
-0.19
-0.06
-0.08
-0.21
-0.38
-0.48
-0.45
-0.3
-0.09
0.06
0.13
0.12
0.09
0.08
0.07
0.03
-0.09
-0.29
-0.49
-0.57
-0.47
-0.2
0.13
0.41
0.53
0.48
0.33
0.16
0.04
-0.04
-0.11
-0.2
-0.32
-0.4
-0.4
-0.28
-0.08
0.13
0.29
0.33
0.28
0.2
0.14
0.14
0.19
0.21
0.15
-0.05
-0.35
-0.66
-0.87
-0.91
-0.78
-0.54
-0.3
-0.14
-0.1
-0.16
-0.23
-0.25
-0.18
-0.05
0.09
0.18
0.21
0.2
0.19
0.22
0.29
0.36
0.38
0.35
0.27
0.19
0.16
0.18
0.23
0.25
0.23
0.13
-0.01
-0.19
-0.36
-0.48
-0.53
-0.51
-0.44
-0.35
-0.29
-0.28
-0.3
-0.32
-0.31
-0.26
-0.22
-0.2
-0.2
-0.18
-0.08
0.12
0.4
0.65
0.82
0.88
0.85
0.81
0.77
0.73
0.63
0.46
0.23
0.02
-0.11
-0.12
-0.05
0.04
0.09
0.1
0.09
0.11
0.18
0.27
0.33
0.3
0.15
-0.12
-0.5
-0.92
-1.28
-1.47
-1.41
-1.05
-0.48
0.14
0.63
0.86
0.8
0.58
0.35
0.24
0.26
0.3
0.27
0.1
-0.16
-0.37
-0.4
-0.19
0.18
0.56
0.78
0.74
0.47
0.08
-0.31
-0.59
-0.73
-0.74
-0.64
-0.42
-0.11
0.25
0.55
0.71
0.67
0.46
0.2
0
-0.05
0.06
0.23
0.35
0.35
0.2
-0.05
-0.33
-0.53
-0.61
-0.55
-0.36
-0.1
0.18
0.42
0.59
0.67
0.67
0.61
0.5
0.41
0.36
0.37
0.42
0.44
0.34
0.09
-0.27
-0.6
-0.79
-0.78
-0.6
-0.36
-0.16
-0.06
-0.04
-0.08
-0.13
-0.18
-0.23
-0.3
-0.37
-0.44
-0.52
-0.62
-0.71
-0.72
-0.56
-0.17
0.38
0.93
1.27
1.23
0.81
0.17
-0.47
-0.9
-1.02
-0.86
-0.53
-0.18
0.08
0.23
0.27
0.27
0.27
0.3
0.36
0.45
0.59
0.75
0.92
1.02
1.01
0.83
0.48
0.02
-0.48
-0.9
-1.17
-1.23
-1.06
-0.7
-0.23
0.23
0.57
0.72
0.69
0.55
0.39
0.23
0.08
-0.08
-0.21
-0.28
-0.23
-0.08
0.11
0.25
0.28
0.19
0.03
-0.14
-0.29
-0.38
-0.44
-0.43
-0.39
-0.31
-0.24
-0.23
-0.28
-0.34
-0.32
-0.16
0.13
0.48
0.77
0.89
0.78
0.47
0.02
-0.42
-0.73
-0.81
-0.65
-0.29
0.14
0.49
0.68
0.67
0.51
0.27
0.02
-0.21
-0.44
-0.66
-0.87
-1.01
-1.03
-0.87
-0.58
-0.22
0.1
0.31
0.4
0.38
0.32
0.25
0.17
0.07
-0.04
-0.15
-0.23
-0.24
-0.18
-0.06
0.13
0.36
0.63
0.9
1.09
1.14
1
0.68
0.26
-0.14
-0.41
-0.47
-0.35
-0.11
0.15
0.34
0.37
0.27
0.06
-0.16
-0.3
-0.29
-0.14
0.08
0.25
0.26
0.07
-0.26
-0.62
-0.85
-0.9
-0.78
-0.59
-0.44
-0.4
-0.4
-0.36
-0.16
0.25
0.78
1.25
1.47
1.29
0.72
-0.09
-0.91
-1.49
-1.7
-1.51
-1.05
-0.51
-0.05
0.23
0.31
0.27
0.17
0.09
0.04
0.06
0.13
0.26
0.41
0.52
0.51
0.34
0.02
-0.38
-0.7
-0.81
-0.68
-0.35
0.02
0.25
0.27
0.14
0
0.01
0.23
0.59
0.91
1.06
1
0.83
0.71
0.73
0.89
1.04
1.04
0.83
0.48
0.13
-0.09
-0.17
-0.15
-0.12
-0.14
-0.2
-0.26
-0.28
-0.26
-0.26
-0.34
-0.53
-0.79
-1.03
-1.17
-1.15
-0.96
-0.69
-0.41
-0.22
-0.14
-0.17
-0.23
-0.26
-0.23
-0.15
-0.07
-0.03
-0.03
-0.09
-0.18
-0.32
-0.47
-0.63
-0.74
-0.71
-0.51
-0.1
0.46
1.03
1.46
1.63
1.46
1
0.39
-0.16
-0.47
-0.45
-0.15
0.29
0.7
0.95
0.99
0.85
0.59
0.26
-0.08
-0.39
-0.61
-0.7
-0.64
-0.49
-0.34
-0.23
-0.16
-0.06
0.14
0.44
0.74
0.94
0.96
0.84
0.66
0.53
0.45
0.34
0.09
-0.31
-0.75
-1.04
-1.02
-0.69
-0.17
0.33
0.6
0.6
0.37
0.01
-0.36
-0.68
-0.91
-1.02
-0.98
-0.78
-0.46
-0.09
0.19
0.31
0.23
0.02
-0.22
-0.36
-0.33
-0.12
0.18
0.46
0.61
0.6
0.46
0.24
0.01
-0.2
-0.37
-0.49
-0.56
-0.57
-0.57
-0.59
-0.67
-0.77
-0.82
-0.74
-0.52
-0.25
-0.07
-0.1
-0.37
-0.76
-1.08
-1.2
-1.07
-0.77
-0.45
-0.27
-0.28
-0.49
-0.81
-1.16
-1.46
-1.66
-1.76
-1.77
-1.75
-1.72
-1.7
-1.66
-1.54
-1.32
-0.99
-0.62
-0.27
-0.03
0.07
0.06
0.01
0.02
0.16
0.41
0.7
0.93
1.03
1.01
0.91
0.8
0.73
0.7
0.68
0.68
0.73
0.88
1.15
1.5
1.83
2.04
2.08
1.98
1.83
1.69
1.56
1.4
1.2
0.99
0.89
1.02
1.42
1.98
2.51
2.79
2.71
2.3
1.72
1.15
0.77
0.63
0.68
0.82
0.92
0.89
0.73
0.46
0.15
-0.12
-0.3
-0.41
-0.46
-0.46
-0.43
-0.37
-0.25
-0.08
0.09
0.21
0.24
0.15
-0.04
-0.27
-0.5
-0.69
-0.85
-1.01
-1.15
-1.29
-1.37
-1.36
-1.22
-0.92
-0.51
-0.08
0.27
0.44
0.4
0.19
-0.08
-0.33
-0.49
-0.58
-0.63
-0.65
-0.61
-0.47
-0.21
0.15
0.54
0.87
1.1
1.26
1.35
1.39
1.33
1.11
0.73
0.24
-0.22
-0.51
-0.54
-0.36
-0.1
0.04
-0.06
-0.41
-0.9
-1.37
-1.67
-1.77
-1.73
-1.65
-1.61
-1.61
-1.58
-1.46
-1.24
-0.96
-0.68
-0.47
-0.38
-0.38
-0.46
-0.56
-0.61
-0.56
-0.4
-0.14
0.17
0.48
0.73
0.87
0.86
0.73
0.5
0.25
0.07
0.05
0.22
0.52
0.86
1.12
1.2
1.06
0.76
0.37
0.03
-0.17
-0.2
-0.12
-0.05
-0.09
-0.23
-0.4
-0.45
-0.31
-0.02
0.3
0.47
0.43
0.22
-0.04
-0.21
-0.21
-0.08
0.09
0.23
0.31
0.33
0.32
0.29
0.27
0.25
0.26
0.31
0.41
0.55
0.68
0.77
0.81
0.81
0.78
0.73
0.68
0.62
0.54
0.44
0.32
0.19
0.06
-0.07
-0.2
-0.32
-0.45
-0.57
-0.64
-0.64
-0.57
-0.47
-0.36
-0.26
-0.19
-0.12
-0.06
-0.05
-0.13
-0.31
-0.54
-0.71
-0.73
-0.55
-0.27
-0.02
0.08
0.02
-0.13
-0.23
-0.2
-0.07
0.04
0.02
-0.19
-0.52
-0.84
-1.02
-1.05
-0.97
-0.89
-0.91
-1.03
-1.23
-1.43
-1.55
-1.54
-1.4
-1.14
-0.85
-0.63
-0.59
-0.8
-1.22
-1.74
-2.16
-2.35
-2.25
-1.96
-1.7
-1.71
-2.18
-3.15
-4.43
-5.61
-6.11
-5.33
-2.86
1.27
6.52
11.9
16.27
18.77
19.1
17.57
14.93
11.97
9.21
6.76
4.45
2.11
-0.24
-2.33
-3.84
-4.55
-4.58
-4.36
-4.39
-5.14
-6.75
-9.02
-11.4
-13.04
-13.02
-10.62
-5.64
1.38
9.17
16.04
20.35
21.11
18.33
12.94
6.5
0.55
-3.86
-6.48
-7.69
-8.2
-8.62
-9.12
-9.51
-9.45
-8.73
-7.51
-6.27
-5.53
-5.63
-6.54
-7.99
-9.54
-10.69
-10.86
-9.45
-5.94
-0.2
7.21
14.94
21.22
24.45
23.85
19.82
13.74
7.42
2.35
-0.79
-2.15
-2.44
-2.43
-2.57
-2.95
-3.36
-3.64
-3.74
-3.8
-4.02
-4.48
-5.14
-5.85
-6.53
-7.12
-7.47
-7.23
-5.88
-2.95
1.65
7.32
12.85
16.78
17.97
16.11
11.79
6.35
1.25
-2.39
-4.15
-4.34
-3.65
-2.84
-2.43
-2.54
-2.96
-3.38
-3.62
-3.66
-3.68
-3.87
-4.31
-5.03
-5.99
-7.11
-8.2
-8.72
-7.82
-4.68
0.94
8.22
15.29
19.85
20.2
16.1
8.97
1.24
-4.75
-7.75
-7.99
-6.69
-5.3
-4.72
-5.01
-5.67
-6.12
-6.11
-5.77
-5.48
-5.56
-6.1
-6.98
-8.09
-9.36
-10.7
-11.7
-11.56
-9.25
-4.01
3.99
13.4
21.97
27.42
28.38
24.92
18.44
10.97
4.33
-0.45
-3.21
-4.35
-4.44
-3.98
-3.34
-2.8
-2.6
-2.87
-3.65
-4.81
-6.09
-7.15
-7.67
-7.51
-6.8
-5.89
-5.24
-4.99
-4.87
-4.16
-2.15
1.44
6.13
10.72
13.81
14.4
12.33
8.39
3.88
0.06
-2.34
-3.29
-3.33
-3.17
-3.34
-3.97
-4.84
-5.57
-5.84
-5.6
-5.11
-4.7
-4.66
-5.12
-6.07
-7.36
-8.64
-9.27
-8.39
-5.19
0.58
8.18
15.91
21.65
23.66
21.42
15.83
8.79
2.31
-2.26
-4.63
-5.37
-5.35
-5.23
-5.2
-5.09
-4.67
-3.92
-3.04
-2.41
-2.35
-2.89
-3.85
-4.94
-5.91
-6.61
-6.91
-6.53
-5.1
-2.3
1.87
6.82
11.53
14.85
15.96
14.72
11.68
7.78
4
0.99
-1.02
-2.16
-2.73
-3.07
-3.38
-3.75
-4.18
-4.61
-5.02
-5.48
-6.13
-7.06
-8.18
-9.1
-9.2
-7.88
-4.9
-0.56
4.27
8.46
11.05
11.61
10.37
8.04
5.44
3.18
1.51
0.38
-0.42
-1.02
-1.46
-1.72
-1.79
-1.75
-1.73
-1.9
-2.38
-3.16
-4.12
-5.08
-5.91
-6.49
-6.78
-6.63
-5.79
-3.97
-1
2.94
7.23
10.95
13.18
13.36
11.47
8.07
3.99
0.12
-2.88
-4.66
-5.17
-4.65
-3.48
-2.16
-1.1
-0.6
-0.71
-1.27
-2.04
-2.78
-3.36
-3.8
-4.19
-4.59
-4.95
-5.01
-4.43
-2.85
-0.14
3.49
7.46
10.95
13.13
13.51
12.01
9.03
5.28
1.52
-1.59
-3.66
-4.59
-4.47
-3.64
-2.47
-1.41
-0.79
-0.76
-1.27
-2.12
-3
-3.65
-3.94
-3.87
-3.61
-3.38
-3.38
-3.67
-4.01
-3.96
-3.05
-1.05
1.84
4.98
7.56
8.91
8.79
7.42
5.31
3
0.87
-0.87
-2.16
-2.98
-3.35
-3.35
-3.15
-2.97
-2.96
-3.11
-3.33
-3.44
-3.34
-3.04
-2.62
-2.26
-2.11
-2.25
-2.58
-2.8
-2.46
-1.13
1.33
4.63
8.04
10.62
11.57
10.59
7.95
4.34
0.63
-2.48
-4.6
-5.67
-5.82
-5.3
-4.35
-3.24
-2.23
-1.58
-1.46
-1.92
-2.83
-3.88
-4.72
-5.08
-4.86
-4.23
-3.56
-3.19
-3.21
-3.39
-3.21
-2.17
-0.08
2.79
5.84
8.36
9.87
10.3
9.88
8.96
7.75
6.35
4.75
3.07
1.56
0.5
0.03
0.05
0.22
0.22
-0.14
-0.79
-1.56
-2.32
-3.06
-3.92
-4.95
-5.99
-6.62
-6.32
-4.77
-2.01
1.44
4.78
7.2
8.17
7.58
5.7
3.11
0.38
-1.97
-3.68
-4.67
-5.02
-4.81
-4.15
-3.13
-1.88
-0.66
0.2
0.38
-0.27
-1.66
-3.5
-5.38
-6.89
-7.71
-7.61
-6.47
-4.29
-1.26
2.2
5.55
8.3
10.15
11.07
11.17
10.56
9.27
7.29
4.73
1.93
-0.6
-2.34
-3.07
-2.9
-2.23
-1.55
-1.21
-1.35
-1.96
-2.9
-4.06
-5.24
-6.18
-6.54
-5.98
-4.35
-1.79
1.29
4.31
6.64
7.88
7.87
6.75
4.87
2.66
0.5
-1.32
-2.63
-3.35
-3.49
-3.07
-2.21
-1.12
-0.07
0.7
1
0.82
0.25
-0.63
-1.7
-2.88
-4.01
-4.79
-4.84
-3.93
-2.05
0.4
2.83
4.67
5.63
5.77
5.4
4.78
4.04
3.14
2.01
0.69
-0.61
-1.59
-2.07
-2.05
-1.74
-1.43
-1.38
-1.69
-2.38
-3.34
-4.45
-5.52
-6.31
-6.54
-5.99
-4.52
-2.19
0.74
3.87
6.66
8.61
9.32
8.65
6.78
4.18
1.5
-0.66
-1.96
-2.41
-2.29
-1.97
-1.7
-1.56
-1.49
-1.43
-1.45
-1.67
-2.24
-3.21
-4.43
-5.59
-6.3
-6.2
-5.1
-3.01
-0.17
3.05
6.21
8.86
10.66
11.39
11.01
9.67
7.69
5.46
3.37
1.68
0.5
-0.23
-0.61
-0.8
-0.92
-1.08
-1.42
-2.1
-3.25
-4.8
-6.44
-7.68
-8.02
-7.17
-5.21
-2.57
0.14
2.33
3.62
3.91
3.31
2.03
0.36
-1.43
-3.03
-4.09
-4.35
-3.74
-2.48
-1.07
-0.15
-0.28
-1.75
-4.43
-7.81
-11.07
-13.42
-14.37
-13.85
-12.12
-9.61
-6.63
-3.31
0.34
4.22
7.99
11.09
12.97
13.36
12.39
10.58
8.58
6.88
5.64
4.74
3.9
2.91
1.73
0.46
-0.7
-1.61
-2.2
-2.51
-2.62
-2.55
-2.27
-1.68
-0.63
0.94
2.98
5.33
7.71
9.78
11.2
11.7
11.15
9.61
7.38
4.88
2.57
0.79
-0.3
-0.8
-0.95
-1.03
-1.3
-1.88
-2.79
-3.92
-5.1
-6.11
-6.71
-6.7
-5.98
-4.59
-2.72
-0.7
1.09
2.31
2.75
2.4
1.44
0.2
-1.03
-2.05
-2.87
-3.6
-4.32
-5
-5.43
-5.35
-4.64
-3.37
-1.87
-0.55
0.21
0.23
-0.5
-1.84
-3.53
-5.17
-6.26
-6.31
-5.01
-2.42
1.03
4.69
7.93
10.34
11.77
12.21
11.66
10.16
7.83
5
2.2
0.01
-1.21
-1.48
-1.14
-0.68
-0.56
-1
-2.03
-3.52
-5.23
-6.77
-7.69
-7.54
-6.08
-3.41
0.01
3.48
6.33
8.08
8.53
7.7
5.79
3.1
0.05
-2.89
-5.19
-6.54
-6.89
-6.49
-5.76
-5.05
-4.52
-4.06
-3.46
-2.61
-1.55
-0.5
0.2
0.31
-0.22
-1.16
-2.04
-2.35
-1.73
-0.1
2.28
4.96
7.43
9.31
10.36
10.47
9.64
7.9
5.47
2.71
0.13
-1.82
-2.89
-3.11
-2.78
-2.26
-1.85
-1.7
-1.89
-2.39
-3.15
-3.97
-4.55
-4.56
-3.78
-2.25
-0.27
1.71
3.29
4.25
4.57
4.35
3.7
2.75
1.57
0.29
-0.95
-2.02
-2.85
-3.39
-3.63
-3.57
-3.24
-2.7
-2.06
-1.45
-0.98
-0.7
-0.61
-0.66
-0.81
-0.96
-0.95
-0.6
0.23
1.49
2.98
4.32
5.2
5.44
5.08
4.3
3.34
2.32
1.32
0.4
-0.39
-0.99
-1.37
-1.55
-1.64
-1.74
-1.94
-2.26
-2.75
-3.39
-4.12
-4.72
-4.88
-4.32
-2.95
-0.99
1.08
2.74
3.67
3.83
3.46
2.88
2.29
1.7
1.05
0.24
-0.67
-1.56
-2.29
-2.74
-2.84
-2.6
-2.07
-1.34
-0.58
0.04
0.35
0.29
-0.14
-0.86
-1.72
-2.53
-3.02
-2.92
-2.02
-0.3
2.04
4.55
6.71
8.1
8.53
8.05
6.89
5.33
3.61
1.92
0.36
-0.96
-1.96
-2.6
-2.88
-2.87
-2.78
-2.83
-3.22
-3.91
-4.61
-4.85
-4.19
-2.46
0.12
3
5.55
7.31
8.04
7.78
6.67
4.91
2.72
0.37
-1.8
-3.45
-4.35
-4.46
-3.92
-2.99
-1.94
-1.06
-0.63
-0.89
-2
-3.93
-6.32
-8.57
-9.93
-9.81
-7.97
-4.67
-0.54
3.6
7.04
9.31
10.24
9.87
8.41
6.15
3.47
0.85
-1.23
-2.42
-2.63
-2.08
-1.17
-0.31
0.21
0.3
0.01
-0.52
-1.21
-2
-2.9
-3.88
-4.83
-5.47
-5.46
-4.49
-2.44
0.5
3.84
6.91
9.06
9.82
9.07
7.02
4.16
1.11
-1.55
-3.41
-4.29
-4.3
-3.73
-2.97
-2.34
-2.04
-2.08
-2.36
-2.73
-3.03
-3.16
-3.14
-3.04
-2.99
-3.08
-3.26
-3.36
-3.08
-2.1
-0.24
2.44
5.59
8.65
10.98
12.1
11.81
10.24
7.77
4.89
2.11
-0.19
-1.75
-2.45
-2.37
-1.73
-0.92
-0.35
-0.34
-0.97
-2.09
-3.37
-4.45
-5.08
-5.24
-5.03
-4.58
-3.99
-3.23
-2.25
-1.03
0.35
1.71
2.87
3.67
4.07
4.08
3.8
3.37
2.89
2.46
2.09
1.76
1.42
1.04
0.6
0.11
-0.45
-1.11
-1.9
-2.79
-3.63
-4.26
-4.49
-4.26
-3.67
-2.92
-2.23
-1.74
-1.5
-1.46
-1.58
-1.82
-2.2
-2.67
-3.12
-3.37
-3.27
-2.73
-1.82
-0.72
0.34
1.16
1.6
1.69
1.53
1.24
0.94
0.71
0.57
0.49
0.39
0.18
-0.29
-1.08
-2.15
-3.38
-4.54
-5.4
-5.86
-5.93
-5.8
-5.72
-5.91
-6.47
-7.33
-8.33
-9.23
-9.88
-10.22
-10.36
-10.47
-10.75
-11.42
-12.6
-14.28
-16.14
-17.42
-16.9
-13.33
-5.84
5.42
19.09
32.93
44.59
52.41
55.74
54.83
50.26
42.56
32.23
20.03
7.3
-4.09
-12.37
-16.57
-16.99
-14.97
-12.25
-10.1
-8.92
-8.34
-7.72
-6.66
-5.19
-3.66
-2.41
-1.54
-0.92
-0.32
0.48
1.46
2.45
3.21
3.54
3.41
2.94
2.37
1.95
1.83
2.01
2.33
2.56
2.52
2.12
1.42
0.58
-0.21
-0.79
-1.14
-1.28
-1.33
-1.37
-1.47
-1.65
-1.85
-2.05
-2.2
-2.28
-2.27
-2.14
-1.89
-1.51
-1.05
-0.6
-0.26
-0.09
-0.1
-0.2
-0.25
-0.11
0.26
0.82
1.43
1.92
2.18
2.19
2.04
1.87
1.85
2.11
2.76
3.83
5.29
7.03
8.86
10.47
11.53
11.74
10.96
9.26
6.86
4.05
1.08
-1.85
-4.63
-7.14
-9.25
-10.8
-11.68
-11.88
-11.53
-10.83
-9.93
-8.92
-7.81
-6.59
-5.28
-4.02
-2.95
-2.2
-1.8
-1.67
-1.68
-1.71
-1.68
-1.64
-1.62
-1.67
-1.78
-1.88
-1.88
-1.75
-1.51
-1.24
-1.05
-1
-1.12
-1.37
-1.66
-1.93
-2.14
-2.29
-2.4
-2.51
-2.63
-2.72
-2.74
-2.62
-2.33
-1.9
-1.39
-0.91
-0.52
-0.27
-0.07
0.2
0.73
1.65
2.99
4.65
6.35
7.78
8.64
8.79
8.21
7.01
5.31
3.24
0.9
-1.54
-3.87
-5.82
-7.16
-7.73
-7.53
-6.7
-5.44
-3.99
-2.5
-1.11
0.09
1.03
1.68
2.1
2.42
2.82
3.41
4.21
5.07
5.74
5.97
5.59
4.61
3.2
1.64
0.2
-0.97
-1.84
-2.52
-3.15
-3.8
-4.49
-5.1
-5.52
-5.68
-5.67
-5.67
-5.89
-6.47
-7.43
-8.64
-9.94
-11.18
-12.28
-13.22
-13.97
-14.5
-14.79
-14.87
-14.81
-14.74
-14.77
-14.92
-15.12
-15.23
-15.12
-14.72
-14.05
-13.28
-12.56
-12.03
-11.7
-11.44
-10.99
-10.13
-8.71
-6.72
-4.3
-1.62
1.18
3.98
6.65
9.06
11.08
12.75
14.25
15.89
17.88
20.15
22.35
23.96
24.57
24.1
22.8
21.14
19.56
18.25
17.15
16.09
14.96
13.74
12.55
11.49
10.56
9.63
8.55
7.2
5.64
4.03
2.62
1.6
1.03
0.79
0.67
0.48
0.14
-0.25
-0.57
-0.67
-0.55
-0.31
-0.08
0.02
0
-0.09
-0.15
-0.17
-0.17
-0.23
-0.35
-0.52
-0.66
-0.74
-0.77
-0.81
-0.88
-0.95
-0.93
-0.76
-0.43
0
0.39
0.62
0.65
0.49
0.22
-0.07
-0.32
-0.47
-0.51
-0.41
-0.21
0.07
0.33
0.5
0.51
0.41
0.25
0.12
0.08
0.13
0.19
0.2
0.11
-0.07
-0.27
-0.44
-0.56
-0.65
-0.76
-0.9
-1.07
-1.22
-1.32
-1.36
-1.34
-1.24
-1.01
-0.62
-0.09
0.51
1.04
1.34
1.33
1.04
0.62
0.23
-0.02
-0.11
-0.14
-0.2
-0.33
-0.53
-0.71
-0.82
-0.83
-0.78
-0.73
-0.71
-0.72
-0.71
-0.66
-0.55
-0.39
-0.2
0.02
0.27
0.54
0.78
0.92
0.95
0.88
0.77
0.67
0.61
0.58
0.53
0.45
0.35
0.26
0.16
0.02
-0.21
-0.52
-0.83
-0.99
-0.93
-0.69
-0.37
-0.09
0.1
0.22
0.34
0.44
0.45
0.33
0.07
-0.22
-0.41
-0.42
-0.31
-0.21
-0.26
-0.46
-0.69
-0.76
-0.56
-0.09
0.46
0.9
1.07
0.97
0.7
0.42
0.24
0.19
0.2
0.2
0.13
0.01
-0.07
-0.04
0.13
0.37
0.58
0.64
0.51
0.22
-0.1
-0.31
-0.33
-0.14
0.18
0.49
0.69
0.7
0.54
0.31
0.1
-0.03
-0.04
0.04
0.13
0.19
0.18
0.1
-0.01
-0.14
-0.24
-0.32
-0.37
-0.38
-0.37
-0.36
-0.37
-0.45
-0.59
-0.78
-0.95
-1.03
-0.99
-0.83
-0.6
-0.32
-0.01
0.3
0.57
0.71
0.67
0.44
0.08
-0.24
-0.39
-0.29
0.02
0.42
0.77
0.96
0.96
0.79
0.49
0.11
-0.28
-0.58
-0.7
-0.58
-0.24
0.18
0.53
0.69
0.58
0.27
-0.12
-0.42
-0.53
-0.38
-0.06
0.34
0.68
0.89
0.98
1.02
1.06
1.12
1.14
1.05
0.77
0.33
-0.18
-0.64
-0.91
-0.98
-0.86
-0.63
-0.38
-0.15
0.01
0.1
0.12
0.07
-0.03
-0.15
-0.26
-0.31
-0.26
-0.12
0.07
0.21
0.25
0.14
-0.07
-0.32
-0.54
-0.69
-0.75
-0.74
-0.65
-0.48
-0.25
-0.03
0.1
0.08
-0.1
-0.38
-0.64
-0.76
-0.69
-0.46
-0.16
0.07
0.13
0
-0.28
-0.57
-0.78
-0.8
-0.63
-0.31
0.06
0.38
0.58
0.64
0.59
0.47
0.32
0.18
0.09
0.05
0.04
0.07
0.12
0.22
0.34
0.51
0.71
0.89
1
0.97
0.75
0.36
-0.11
-0.5
-0.66
-0.52
-0.14
0.31
0.59
0.57
0.25
-0.21
-0.63
-0.86
-0.88
-0.76
-0.58
-0.4
-0.19
0.08
0.37
0.61
0.69
0.59
0.35
0.11
0
0.06
0.23
0.37
0.4
0.29
0.07
-0.18
-0.41
-0.6
-0.75
-0.86
-0.88
-0.77
-0.52
-0.16
0.21
0.5
0.64
0.64
0.53
0.38
0.24
0.08
-0.12
-0.36
-0.59
-0.72
-0.67
-0.47
-0.21
-0.05
-0.1
-0.38
-0.79
-1.15
-1.32
-1.24
-0.92
-0.44
0.08
0.52
0.76
0.72
0.44
0.04
-0.29
-0.39
-0.24
0.06
0.36
0.53
0.52
0.4
0.24
0.09
-0.03
-0.11
-0.12
0
0.26
0.61
0.89
0.97
0.78
0.38
-0.12
-0.53
-0.76
-0.76
-0.53
-0.17
0.19
0.43
0.46
0.3
0.07
-0.05
0.05
0.35
0.7
0.88
0.75
0.35
-0.16
-0.54
-0.64
-0.48
-0.2
0.01
0.01
-0.23
-0.63
-1.04
-1.31
-1.34
-1.11
-0.7
-0.21
0.25
0.62
0.88
1.05
1.16
1.21
1.18
1.07
0.9
0.72
0.6
0.53
0.49
0.44
0.37
0.3
0.28
0.34
0.44
0.47
0.36
0.09
-0.28
-0.62
-0.8
-0.78
-0.61
-0.36
-0.14
0.02
0.13
0.2
0.26
0.27
0.22
0.13
0.03
-0.02
0
0.06
0.05
-0.09
-0.39
-0.79
-1.15
-1.35
-1.31
-1.03
-0.63
-0.24
0.02
0.11
0.05
-0.09
-0.24
-0.31
-0.27
-0.12
0.11
0.35
0.53
0.59
0.49
0.22
-0.15
-0.54
-0.86
-1.04
-1.09
-1.03
-0.9
-0.71
-0.49
-0.24
0
0.18
0.23
0.12
-0.11
-0.41
-0.67
-0.82
-0.84
-0.73
-0.53
-0.28
-0.02
0.2
0.34
0.32
0.18
-0.03
-0.21
-0.28
-0.22
-0.07
0.08
0.18
0.23
0.31
0.47
0.73
1.04
1.32
1.44
1.37
1.1
0.73
0.37
0.13
0.1
0.31
0.67
1.06
1.31
1.35
1.21
1.04
1.02
1.24
1.67
2.15
2.47
2.52
2.34
2.1
2.03
2.29
2.93
3.83
4.79
5.61
6.17
6.45
6.55
6.61
6.79
7.15
7.69
8.34
9.05
9.76
10.43
11.05
11.52
11.8
11.9
11.95
12.16
12.62
13.23
13.67
13.47
12.32
10.22
7.52
4.8
2.59
1.16
0.39
-0.01
-0.42
-1.06
-2
-3.19
-4.53
-6
-7.6
-9.27
-10.9
-12.31
-13.32
-13.79
-13.72
-13.22
-12.46
-11.64
-10.92
-10.4
-10.11
-10.02
-10.03
-10.03
-9.92
-9.61
-9.11
-8.44
-7.71
-6.97
-6.28
-5.64
-5.06
-4.52
-4
-3.53
-3.1
-2.76
-2.52
-2.36
-2.25
-2.11
-1.93
-1.72
-1.54
-1.46
-1.45
-1.41
-1.23
-0.82
-0.2
0.51
1.11
1.47
1.58
1.51
1.38
1.27
1.15
0.97
0.64
0.17
-0.38
-0.89
-1.23
-1.36
-1.3
-1.12
-0.92
-0.77
-0.68
-0.62
-0.54
-0.42
-0.24
-0.03
0.18
0.37
0.56
0.8
1.13
1.51
1.87
2.14
2.24
2.18
2.02
1.83
1.68
1.57
1.44
1.24
0.97
0.64
0.37
0.25
0.39
0.82
1.47
2.2
2.8
3.11
3.05
2.69
2.19
1.75
1.45
1.32
1.3
1.3
1.3
1.31
1.33
1.3
1.12
0.67
-0.11
-1.1
-2.06
-2.75
-2.99
-2.81
-2.4
-2.06
-2.01
-2.32
-2.85
-3.33
-3.54
-3.37
-2.91
-2.37
-1.97
-1.83
-1.93
-2.1
-2.19
-2.06
-1.68
-1.11
-0.45
0.19
0.68
0.9
0.76
0.21
-0.72
-1.94
-3.25
-4.48
-5.46
-6.13
-6.49
-6.58
-6.45
-6.13
-5.66
-5.09
-4.53
-4.08
-3.82
-3.76
-3.85
-3.99
-4.09
-4.13
-4.15
-4.24
-4.49
-4.93
-5.55
-6.23
-6.82
-7.16
-7.13
-6.68
-5.79
-4.48
-2.78
-0.74
1.56
4.01
6.45
8.71
10.58
11.93
12.67
12.78
12.35
11.53
10.49
9.44
8.51
7.81
7.37
7.15
7.06
6.95
6.67
6.09
5.19
4.05
2.83
1.71
0.77
0.06
-0.48
-0.89
-1.16
-1.29
-1.26
-1.12
-0.97
-0.91
-0.97
-1.17
-1.43
-1.66
-1.81
-1.8
-1.66
-1.37
-1.01
-0.63
-0.33
-0.19
-0.26
-0.52
-0.9
-1.28
-1.52
-1.55
-1.32
-0.92
-0.45
-0.05
0.18
0.21
0.08
-0.11
-0.25
-0.27
-0.13
0.14
0.47
0.8
1.06
1.21
1.23
1.12
0.9
0.6
0.29
0.02
-0.16
-0.23
-0.21
-0.14
-0.11
-0.16
-0.34
-0.64
-1
-1.33
-1.51
-1.48
-1.27
-0.97
-0.71
-0.58
-0.57
-0.59
-0.53
-0.34
-0.06
0.23
0.4
0.41
0.29
0.16
0.09
0.14
0.28
0.43
0.53
0.6
0.67
0.79
0.97
1.16
1.28
1.25
1.06
0.8
0.59
0.54
0.69
0.98
1.3
1.54
1.62
1.51
1.25
0.88
0.5
0.19
0.01
0
0.11
0.29
0.46
0.59
0.65
0.68
0.68
0.63
0.51
0.34
0.16
0.02
0
0.13
0.37
0.68
0.97
1.18
1.23
1.07
0.63
-0.06
-0.88
-1.64
-2.14
-2.28
-2.13
-1.84
-1.59
-1.49
-1.54
-1.64
-1.68
-1.63
-1.53
-1.43
-1.41
-1.45
-1.47
-1.41
-1.21
-0.88
-0.48
-0.09
0.2
0.34
0.33
0.21
0.05
-0.1
-0.21
-0.27
-0.28
-0.27
-0.23
-0.16
-0.04
0.12
0.3
0.43
0.45
0.29
-0.06
-0.52
-0.94
-1.15
-1.06
-0.68
-0.15
0.34
0.66
0.78
0.75
0.67
0.57
0.46
0.33
0.2
0.15
0.27
0.6
1.11
1.65
2.07
2.26
2.17
1.84
1.35
0.79
0.26
-0.17
-0.42
-0.47
-0.35
-0.13
0.1
0.29
0.44
0.55
0.61
0.57
0.37
0.02
-0.38
-0.71
-0.82
-0.67
-0.34
0.02
0.26
0.3
0.14
-0.15
-0.5
-0.84
-1.1
-1.22
-1.14
-0.88
-0.49
-0.06
0.29
0.52
0.64
0.66
0.64
0.58
0.46
0.28
0.07
-0.11
-0.21
-0.19
-0.08
0.08
0.21
0.27
0.23
0.08
-0.16
-0.45
-0.74
-0.96
-1.08
-1.04
-0.89
-0.69
-0.53
-0.47
-0.51
-0.58
-0.62
-0.6
-0.52
-0.47
-0.49
-0.59
-0.7
-0.71
-0.58
-0.34
-0.11
0
-0.06
-0.22
-0.35
-0.35
-0.22
-0.05
0.07
0.06
-0.04
-0.14
-0.17
-0.07
0.13
0.35
0.51
0.58
0.58
0.55
0.55
0.62
0.71
0.78
0.76
0.65
0.46
0.24
0.01
-0.21
-0.42
-0.62
-0.74
-0.75
-0.64
-0.42
-0.2
-0.09
-0.14
-0.34
-0.6
-0.82
-0.91
-0.86
-0.71
-0.54
-0.41
-0.36
-0.36
-0.35
-0.28
-0.16
-0.03
0.07
0.1
0.04
-0.05
-0.1
-0.02
0.19
0.47
0.73
0.84
0.75
0.49
0.16
-0.14
-0.33
-0.42
-0.45
-0.49
-0.52
-0.51
-0.41
-0.2
0.06
0.31
0.48
0.54
0.54
0.5
0.45
0.36
0.2
-0.07
-0.4
-0.68
-0.79
-0.63
-0.24
0.24
0.63
0.78
0.64
0.33
0.02
-0.17
-0.17
-0.08
0
-0.02
-0.16
-0.36
-0.55
-0.69
-0.77
-0.82
-0.83
-0.78
-0.64
-0.43
-0.19
-0.01
0.08
0.12
0.15
0.24
0.39
0.53
0.59
0.54
0.42
0.3
0.24
0.23
0.22
0.15
0.02
-0.1
-0.1
0.06
0.33
0.6
0.72
0.65
0.45
0.25
0.17
0.23
0.38
0.54
0.62
0.58
0.47
0.31
0.13
-0.06
-0.22
-0.29
-0.22
-0.03
0.21
0.35
0.29
-0.03
-0.51
-1
-1.34
-1.44
-1.29
-0.97
-0.6
-0.31
-0.15
-0.13
-0.19
-0.26
-0.25
-0.15
-0.02
0.02
-0.12
-0.47
-0.97
-1.46
-1.79
-1.85
-1.61
-1.11
-0.45
0.29
0.99
1.59
2.03
2.31
2.45
2.53
2.64
2.82
3.05
3.24
3.25
2.95
2.3
1.4
0.4
-0.49
-1.11
-1.41
-1.43
-1.32
-1.2
-1.16
-1.23
-1.36
-1.48
-1.53
-1.48
-1.29
-0.99
-0.6
-0.2
0.13
0.31
0.32
0.17
-0.05
-0.22
-0.24
-0.08
0.24
0.66
1.05
1.31
1.36
1.14
0.68
0.06
-0.56
-1.02
-1.2
-1.12
-0.85
-0.54
-0.31
-0.2
-0.19
-0.19
-0.14
-0.05
0.06
0.13
0.12
0.05
-0.06
-0.15
-0.17
-0.09
0.06
0.24
0.37
0.38
0.27
0.08
-0.13
-0.28
-0.37
-0.42
-0.49
-0.59
-0.73
-0.82
-0.85
-0.81
-0.74
-0.69
-0.66
-0.62
-0.51
-0.28
0.07
0.48
0.85
1.1
1.16
1.08
0.93
0.81
0.78
0.81
0.83
0.77
0.59
0.35
0.14
0.03
0.02
0.07
0.11
0.09
0.01
-0.11
-0.29
-0.51
-0.76
-0.95
-1.02
-0.91
-0.66
-0.37
-0.16
-0.13
-0.27
-0.48
-0.65
-0.71
-0.67
-0.63
-0.65
-0.76
-0.92
-1.02
-0.99
-0.8
-0.54
-0.33
-0.24
-0.3
-0.42
-0.5
-0.44
-0.26
-0.03
0.16
0.23
0.19
0.12
0.09
0.12
0.2
0.27
0.25
0.14
-0.04
-0.21
-0.28
-0.19
0.06
0.38
0.69
0.92
1.06
1.13
1.16
1.14
1.06
0.9
0.65
0.39
0.19
0.11
0.17
0.31
0.44
0.45
0.32
0.07
-0.2
-0.37
-0.34
-0.07
0.43
1.06
1.66
2.1
2.22
1.98
1.45
0.77
0.16
-0.23
-0.36
-0.32
-0.26
-0.3
-0.47
-0.68
-0.8
-0.74
-0.48
-0.1
0.29
0.61
0.83
0.97
1.03
1.02
0.92
0.73
0.5
0.31
0.22
0.27
0.42
0.57
0.62
0.5
0.21
-0.18
-0.54
-0.78
-0.86
-0.82
-0.74
-0.67
-0.66
-0.73
-0.87
-1.08
-1.35
-1.64
-1.91
-2.09
-2.14
-2
-1.69
-1.23
-0.73
-0.33
-0.15
-0.23
-0.5
-0.8
-0.96
-0.9
-0.64
-0.29
0.03
0.26
0.41
0.52
0.61
0.68
0.71
0.7
0.67
0.65
0.67
0.72
0.75
0.74
0.68
0.56
0.41
0.26
0.15
0.1
0.1
0.15
0.19
0.19
0.13
0.05
-0.05
-0.11
-0.13
-0.09
0.04
0.24
0.49
0.69
0.75
0.58
0.19
-0.35
-0.87
-1.25
-1.41
-1.38
-1.24
-1.06
-0.88
-0.71
-0.5
-0.25
0.02
0.27
0.48
0.6
0.61
0.5
0.25
-0.08
-0.38
-0.51
-0.36
0.05
0.6
1.12
1.46
1.53
1.38
1.06
0.64
0.17
-0.28
-0.64
-0.78
-0.63
-0.2
0.37
0.87
1.13
1.07
0.78
0.41
0.12
-0.01
0.01
0.09
0.13
0.07
-0.09
-0.3
-0.51
-0.66
-0.71
-0.67
-0.56
-0.4
-0.23
-0.1
-0.06
-0.11
-0.25
-0.42
-0.55
-0.57
-0.48
-0.35
-0.23
-0.18
-0.2
-0.23
-0.23
-0.17
-0.08
-0.01
-0.05
-0.26
-0.65
-1.18
-1.75
-2.25
-2.57
-2.67
-2.55
-2.33
-2.1
-1.97
-1.96
-2.07
-2.2
-2.3
-2.33
-2.28
-2.21
-2.18
-2.27
-2.54
-3.02
-3.64
-4.29
-4.82
-5.13
-5.24
-5.32
-5.62
-6.35
-7.55
-9.05
-10.5
-11.56
-12.07
-12.2
-12.37
-13.12
-14.78
-17.34
-20.33
-23.04
-24.78
-25.24
-24.71
-23.99
-24.14
-25.96
-29.65
-34.67
-39.95
-44.42
-47.42
-49
-49.83
-50.9
-53.09
-57.03
-62.92
-70.39
-78.12
-83.58
-83.37
-74.3
-54.97
-26.91
5.38
35.89
59.37
73.27
78.38
77.75
74.89
72.09
69.9
67.8
65.27
62.51
60.37
59.57
60.13
61.17
61.4
59.81
56.23
51.4
46.55
42.83
40.79
40.2
40.3
40.22
39.44
37.94
36.13
34.54
33.53
33.17
33.28
33.57
33.79
33.8
33.6
33.25
32.83
32.37
31.88
31.37
30.85
30.35
29.95
29.77
29.93
30.47
31.24
31.75
31.19
28.68
23.53
15.62
5.57
-5.37
-15.66
-24.01
-29.67
-32.59
-33.26
-32.39
-30.65
-28.54
-26.49
-24.88
-24.09
-24.37
-25.7
-27.72
-29.83
-31.34
-31.77
-30.96
-29.13
-26.71
-24.17
-21.78
-19.64
-17.66
-15.77
-14.04
-12.67
-11.92
-11.93
-12.6
-13.59
-14.41
-14.62
-14.03
-12.77
-11.17
-9.62
-8.37
-7.52
-6.98
-6.62
-6.35
-6.12
-5.95
-5.81
-5.64
-5.36
-4.88
-4.19
-3.35
-2.49
-1.77
-1.29
-1.05
-0.95
-0.82
-0.57
-0.16
0.37
0.95
1.49
1.95
2.33
2.57
2.65
2.53
2.19
1.72
1.26
0.98
0.97
1.23
1.57
1.75
1.53
0.77
-0.47
-1.99
-3.46
-4.58
-5.21
-5.33
-5.05
-4.55
-3.96
-3.4
-2.95
-2.7
-2.73
-3.01
-3.46
-3.85
-4
-3.78
-3.2
-2.43
-1.72
-1.24
-1.04
-1.06
-1.15
-1.21
-1.21
-1.18
-1.17
-1.14
-1.02
-0.74
-0.33
0.11
0.42
0.47
0.24
-0.13
-0.49
-0.66
-0.6
-0.37
-0.13
-0.01
-0.09
-0.31
-0.56
-0.7
-0.66
-0.41
-0.02
0.43
0.87
1.22
1.4
1.35
1.03
0.49
-0.13
-0.61
-0.77
-0.56
-0.05
0.53
0.96
1.09
0.89
0.47
0
-0.38
-0.57
-0.6
-0.54
-0.49
-0.53
-0.64
-0.78
-0.83
-0.76
-0.56
-0.3
-0.02
0.25
0.49
0.71
0.84
0.82
0.61
0.27
-0.07
-0.26
-0.19
0.13
0.56
0.93
1.1
1.04
0.82
0.57
0.43
0.44
0.59
0.83
1.05
1.18
1.18
1.02
0.75
0.4
0.04
-0.31
-0.6
-0.79
-0.9
-0.92
-0.89
-0.83
-0.76
-0.71
-0.67
-0.65
-0.62
-0.57
-0.47
-0.33
-0.17
-0.04
0.01
-0.05
-0.21
-0.4
-0.55
-0.56
-0.43
-0.19
0.05
0.19
0.16
-0.01
-0.27
-0.52
-0.66
-0.68
-0.55
-0.27
0.12
0.56
0.94
1.12
1.02
0.67
0.15
-0.37
-0.76
-0.97
-1.05
-1.05
-1.05
-1.05
-1.03
-0.97
-0.88
-0.77
-0.65
-0.49
-0.26
0.06
0.42
0.72
0.88
0.85
0.62
0.28
-0.07
-0.31
-0.38
-0.26
0.01
0.35
0.66
0.87
0.95
0.88
0.71
0.51
0.35
0.25
0.24
0.28
0.35
0.4
0.43
0.42
0.38
0.29
0.12
-0.11
-0.32
-0.46
-0.44
-0.26
0.01
0.29
0.48
0.51
0.38
0.13
-0.2
-0.55
-0.82
-0.93
-0.79
-0.38
0.19
0.75
1.09
1.06
0.67
0.08
-0.47
-0.8
-0.81
-0.57
-0.21
0.09
0.29
0.38
0.41
0.4
0.34
0.16
-0.14
-0.51
-0.85
-1.03
-0.96
-0.63
-0.14
0.38
0.78
0.93
0.81
0.48
0.08
-0.23
-0.34
-0.23
0.03
0.31
0.52
0.61
0.56
0.41
0.2
-0.03
-0.24
-0.4
-0.48
-0.5
-0.51
-0.51
-0.52
-0.5
-0.42
-0.26
-0.08
0.06
0.11
0.04
-0.08
-0.18
-0.2
-0.1
0.06
0.22
0.33
0.34
0.28
0.2
0.13
0.12
0.15
0.2
0.22
0.19
0.09
-0.07
-0.23
-0.31
-0.27
-0.06
0.28
0.65
0.96
1.08
0.99
0.73
0.43
0.23
0.21
0.36
0.55
0.6
0.41
-0.02
-0.55
-0.99
-1.21
-1.16
-0.95
-0.68
-0.46
-0.28
-0.12
0.03
0.16
0.21
0.18
0.1
0.06
0.13
0.32
0.52
0.6
0.49
0.19
-0.18
-0.49
-0.64
-0.6
-0.43
-0.22
-0.07
-0.01
-0.05
-0.15
-0.26
-0.36
-0.42
-0.46
-0.46
-0.45
-0.41
-0.39
-0.39
-0.45
-0.58
-0.75
-0.89
-0.93
-0.78
-0.42
0.09
0.61
0.97
1.07
0.88
0.48
0.07
-0.21
-0.25
-0.07
0.23
0.52
0.7
0.75
0.68
0.5
0.21
-0.15
-0.53
-0.79
-0.83
-0.61
-0.18
0.32
0.75
1.02
1.15
1.18
1.14
1.03
0.82
0.51
0.17
-0.11
-0.23
-0.16
0.08
0.4
0.69
0.85
0.82
0.57
0.16
-0.32
-0.71
-0.92
-0.89
-0.71
-0.53
-0.47
-0.57
-0.75
-0.87
-0.8
-0.52
-0.1
0.29
0.53
0.55
0.39
0.14
-0.08
-0.23
-0.29
-0.3
-0.33
-0.39
-0.45
-0.47
-0.4
-0.24
0
0.24
0.44
0.59
0.72
0.84
0.93
0.95
0.83
0.57
0.24
-0.04
-0.15
-0.04
0.27
0.68
1.06
1.33
1.43
1.36
1.11
0.73
0.25
-0.24
-0.67
-0.96
-1.05
-0.93
-0.6
-0.17
0.24
0.51
0.59
0.51
0.35
0.23
0.22
0.27
0.28
0.16
-0.16
-0.62
-1.13
-1.55
-1.79
-1.84
-1.78
-1.69
-1.67
-1.72
-1.81
-1.83
-1.7
-1.4
-0.99
-0.59
-0.31
-0.18
-0.17
-0.15
0.02
0.38
0.9
1.43
1.82
1.96
1.87
1.64
1.37
1.14
0.94
0.77
0.6
0.43
0.27
0.11
-0.07
-0.32
-0.62
-0.92
-1.13
-1.19
-1.08
-0.85
-0.58
-0.38
-0.35
-0.58
-1.11
-1.87
-2.7
-3.36
-3.65
-3.53
-3.12
-2.66
-2.39
-2.42
-2.68
-2.98
-3.16
-3.15
-3.07
-3.08
-3.38
-4.07
-5.11
-6.36
-7.55
-8.45
-8.89
-8.94
-8.86
-9.12
-10.16
-12.17
-14.92
-17.82
-20.09
-21.16
-21.02
-20.25
-19.87
-20.83
-23.6
-27.81
-32.41
-36.07
-37.82
-37.42
-35.55
-33.46
-32.5
-33.7
-37.35
-42.8
-48.12
-50.24
-45.53
-31.18
-6.58
25.72
60.54
91.8
114.82
128.06
133.27
134.25
134.81
137.2
141.43
145.44
145.98
139.63
123.96
98.5
65.33
28.79
-5.77
-33.83
-53.09
-63.87
-68.18
-68.38
-66.07
-61.97
-56.45
-50.26
-44.61
-40.7
-38.97
-38.8
-38.79
-37.53
-34.3
-29.41
-23.98
-19.44
-16.85
-16.54
-18.03
-20.25
-22.01
-22.44
-21.27
-18.92
-16.22
-13.98
-12.65
-12.15
-12.01
-11.57
-10.38
-8.33
-5.71
-3
-0.66
1.03
2
2.41
2.51
2.51
2.57
2.71
2.86
2.95
2.91
2.77
2.59
2.46
2.39
2.34
2.25
2.06
1.78
1.48
1.27
1.2
1.29
1.45
1.53
1.45
1.15
0.75
0.45
0.49
1
2.02
3.39
4.86
6.16
7.14
7.75
8.09
8.32
8.54
8.77
8.95
8.96
8.74
8.3
7.71
7.11
6.63
6.27
5.98
5.62
5.14
4.52
3.84
3.23
2.75
2.41
2.15
1.88
1.58
1.26
0.98
0.81
0.76
0.81
0.89
0.9
0.8
0.56
0.26
-0.03
-0.2
-0.23
-0.15
-0.04
0.02
0.02
0.02
0.09
0.27
0.51
0.75
0.93
1.02
1.08
1.14
1.21
1.26
1.24
1.17
1.07
1
1.02
1.11
1.28
1.48
1.73
2
2.27
2.47
2.48
2.22
1.71
1.03
0.31
-0.31
-0.76
-1.04
-1.21
-1.31
-1.39
-1.49
-1.61
-1.75
-1.88
-1.98
-1.99
-1.89
-1.68
-1.36
-0.99
-0.57
-0.1
0.46
1.1
1.81
2.47
2.95
3.17
3.12
2.88
2.63
2.51
2.62
2.98
3.5
4.1
4.66
5.13
5.49
5.74
5.93
6.13
6.42
6.83
7.32
7.76
7.91
7.54
6.56
5.02
3.14
1.24
-0.47
-1.87
-3
-3.97
-4.87
-5.7
-6.39
-6.88
-7.15
-7.26
-7.32
-7.4
-7.49
-7.53
-7.42
-7.13
-6.72
-6.3
-5.99
-5.85
-5.84
-5.9
-5.93
-5.85
-5.62
-5.21
-4.66
-4.07
-3.58
-3.34
-3.38
-3.61
-3.81
-3.8
-3.46
-2.86
-2.14
-1.44
-0.83
-0.29
0.18
0.55
0.78
0.84
0.83
0.9
1.16
1.64
2.17
2.54
2.55
2.18
1.56
0.94
0.5
0.3
0.25
0.19
-0.01
-0.36
-0.77
-1.08
-1.22
-1.17
-1.05
-0.96
-0.97
-1.03
-1.04
-0.9
-0.64
-0.38
-0.29
-0.51
-1
-1.61
-2.13
-2.42
-2.46
-2.38
-2.35
-2.51
-2.87
-3.36
-3.84
-4.17
-4.3
-4.27
-4.16
-4.02
-3.88
-3.68
-3.34
-2.83
-2.19
-1.53
-0.96
-0.58
-0.41
-0.43
-0.58
-0.8
-1.04
-1.27
-1.46
-1.61
-1.77
-1.99
-2.29
-2.69
-3.14
-3.61
-4.07
-4.55
-5.14
-5.96
-7.1
-8.63
-10.55
-12.78
-15.22
-17.7
-20.05
-22.13
-23.87
-25.29
-26.54
-27.79
-29.19
-30.69
-31.92
-32.21
-30.86
-27.53
-22.69
-17.59
-13.52
-10.82
-8.16
-2.67
8.83
28.19
54.79
85.66
116.59
143.51
163.23
173.4
172.23
158.61
132.96
98.05
59.08
22.34
-7
-26.66
-37.79
-43.71
-47.95
-52.45
-57.09
-60.38
-60.89
-58.3
-53.63
-48.66
-45
-43.46
-43.77
-45.01
-46.19
-46.83
-47.15
-47.68
-48.93
-50.91
-53.23
-55.33
-56.9
-58.01
-59.01
-60.33
-62.19
-64.58
-67.27
-69.96
-72.42
-74.6
-76.62
-78.54
-79.94
-79.55
-75.32
-65.06
-47.39
-22.79
6.16
35.38
60.68
79.13
89.95
94.3
94.44
92.56
90.04
87.33
84.36
81.04
77.59
74.48
72.16
70.84
70.29
69.95
69.22
67.74
65.62
63.42
61.87
61.56
62.63
64.71
67.06
69.01
70.25
70.95
71.48
72.1
72.56
72.12
69.86
65.14
57.9
48.48
37.24
24.24
9.37
-7.2
-24.44
-40.45
-53.01
-60.44
-62.43
-60.03
-55.16
-49.65
-44.53
-39.97
-35.67
-31.35
-27.09
-23.18
-19.91
-17.23
-14.81
-12.3
-9.44
-6.33
-3.37
-1.12
-0.1
-0.59
-2.56
-5.68
-9.43
-13.34
-17.08
-20.59
-23.97
-27.35
-30.67
-33.66
-35.88
-36.9
-36.54
-34.96
-32.64
-30.17
-28.08
-26.6
-25.73
-25.25
-24.99
-24.82
-24.77
-24.91
-25.22
-25.59
-25.82
-25.73
-25.33
-24.85
-24.63
-25
-26.09
-27.71
-29.47
-30.99
-32.1
-32.96
-33.98
-35.57
-37.88
-40.61
-42.98
-43.97
-42.62
-38.41
-31.56
-23.15
-14.82
-8.16
-4.06
-2.32
-1.69
-0.4
3.18
10.06
20.51
34.14
50.14
67.4
84.56
100.29
113.53
123.96
132.26
139.68
147.08
153.77
156.99
152.73
137.54
110.67
74.99
36.41
1.71
-24
-38.96
-44.83
-45.14
-43.32
-41.29
-39.3
-36.83
-33.7
-30.64
-28.97
-29.78
-33.09
-37.69
-41.69
-43.38
-42.06
-38.31
-33.68
-29.78
-27.6
-27.04
-27.18
-26.83
-25.21
-22.26
-18.56
-14.94
-12.07
-10.18
-9.07
-8.32
-7.53
-6.47
-5.16
-3.81
-2.65
-1.88
-1.6
-1.78
-2.28
-2.89
-3.38
-3.56
-3.4
-2.95
-2.37
-1.83
-1.42
-1.19
-1.09
-1.03
-0.94
-0.82
-0.68
-0.58
-0.56
-0.65
-0.86
-1.12
-1.34
-1.41
-1.3
-1.06
-0.81
-0.68
-0.69
-0.8
-0.88
-0.83
-0.66
-0.45
-0.33
-0.38
-0.57
-0.8
-0.94
-0.92
-0.78
-0.66
-0.66
-0.79
-0.99
-1.13
-1.12
-0.97
-0.76
-0.6
-0.53
-0.51
-0.48
-0.35
-0.12
0.17
0.47
0.68
0.79
0.78
0.67
0.53
0.41
0.38
0.45
0.6
0.77
0.88
0.9
0.86
0.79
0.75
0.74
0.72
0.61
0.38
0.06
-0.22
-0.32
-0.12
0.38
1.06
1.75
2.28
2.56
2.61
2.52
2.41
2.35
2.33
2.3
2.17
1.91
1.54
1.15
0.84
0.65
0.56
0.51
0.4
0.22
0.04
-0.07
-0.05
0.05
0.11
0
-0.28
-0.65
-0.96
-1.15
-1.32
-1.67
-2.38
-3.47
-4.72
-5.78
-6.32
-6.2
-5.57
-4.7
-3.92
-3.36
-2.98
-2.64
-2.18
-1.6
-1.01
-0.56
-0.33
-0.27
-0.21
0.01
0.41
0.9
1.28
1.38
1.18
0.85
0.64
0.79
1.37
2.28
3.25
3.98
4.31
4.2
3.76
3.15
2.53
1.95
1.44
1.02
0.7
0.54
0.58
0.76
0.98
1.12
1.04
0.71
0.19
-0.38
-0.84
-1.12
-1.2
-1.19
-1.18
-1.25
-1.41
-1.57
-1.66
-1.6
-1.36
-0.97
-0.53
-0.12
0.18
0.36
0.42
0.42
0.41
0.42
0.44
0.44
0.42
0.38
0.35
0.35
0.37
0.38
0.34
0.22
0.05
-0.11
-0.17
-0.1
0.13
0.44
0.72
0.84
0.71
0.35
-0.14
-0.59
-0.86
-0.89
-0.72
-0.45
-0.22
-0.09
-0.1
-0.17
-0.24
-0.27
-0.26
-0.21
-0.17
-0.17
-0.18
-0.16
-0.06
0.14
0.43
0.76
1.05
1.25
1.33
1.31
1.19
1
0.76
0.48
0.18
-0.09
-0.33
-0.52
-0.64
-0.7
-0.67
-0.54
-0.32
-0.04
0.21
0.38
0.45
0.42
0.36
0.34
0.37
0.47
0.61
0.77
0.95
1.16
1.37
1.53
1.6
1.52
1.3
0.95
0.49
-0.04
-0.62
-1.19
-1.67
-1.98
-2.09
-2.04
-1.95
-1.92
-2.01
-2.2
-2.41
-2.56
-2.61
-2.59
-2.53
-2.47
-2.42
-2.38
-2.32
-2.25
-2.17
-2.1
-2.03
-1.99
-2.01
-2.12
-2.29
-2.45
-2.51
-2.33
-1.83
-1.02
0.03
1.21
2.35
3.34
4.13
4.71
5.15
5.54
5.94
6.41
6.91
7.36
7.6
7.49
6.92
5.84
4.35
2.63
0.97
-0.39
-1.3
-1.8
-2
-2.07
-2.08
-2.04
-1.93
-1.74
-1.58
-1.57
-1.8
-2.29
-2.93
-3.6
-4.2
-4.71
-5.16
-5.55
-5.86
-6.02
-6.01
-5.9
-5.86
-6.04
-6.53
-7.19
-7.69
-7.58
-6.43
-4.03
-0.5
3.7
7.87
11.24
13.21
13.54
12.4
10.3
7.93
5.86
4.43
3.66
3.3
3.02
2.55
1.82
0.89
-0.07
-0.94
-1.67
-2.26
-2.69
-2.86
-2.63
-1.88
-0.66
0.8
2.12
2.96
3.14
2.69
1.83
0.84
-0.07
-0.79
-1.3
-1.63
-1.8
-1.82
-1.74
-1.61
-1.52
-1.52
-1.62
-1.8
-2.04
-2.28
-2.45
-2.46
-2.19
-1.54
-0.53
0.73
2.01
3.05
3.65
3.73
3.35
2.63
1.7
0.73
-0.16
-0.81
-1.14
-1.12
-0.81
-0.36
0.05
0.25
0.14
-0.31
-0.96
-1.61
-1.96
-1.78
-0.98
0.32
1.79
3.02
3.68
3.57
2.75
1.46
-0.01
-1.33
-2.3
-2.79
-2.83
-2.52
-2.02
-1.51
-1.14
-1.01
-1.14
-1.44
-1.76
-1.92
-1.75
-1.18
-0.28
0.76
1.68
2.22
2.24
1.71
0.75
-0.49
-1.8
-3.04
-4.08
-4.84
-5.27
-5.37
-5.21
-4.93
-4.71
-4.72
-5.02
-5.54
-6.05
-6.29
-6.1
-5.48
-4.66
-4.02
-3.89
-4.39
-5.41
-6.6
-7.66
-8.36
-8.67
-8.72
-8.68
-8.68
-8.82
-9.23
-9.97
-10.94
-11.66
-11.31
-8.88
-3.69
4.23
13.96
23.99
32.67
38.88
42.19
42.83
41.3
38.01
33.19
26.99
19.76
12.18
5.22
-0.23
-3.66
-5.15
-5.26
-4.81
-4.47
-4.54
-4.87
-5.14
-5.05
-4.54
-3.84
-3.31
-3.21
-3.56
-4.15
-4.64
-4.78
-4.52
-3.97
-3.4
-3.02
-2.93
-3.06
-3.26
-3.32
-3.14
-2.72
-2.21
-1.79
-1.61
-1.7
-1.93
-2.12
-2.08
-1.75
-1.22
-0.67
-0.27
-0.06
0.03
0.13
0.29
0.48
0.56
0.42
0.05
-0.41
-0.75
-0.82
-0.56
-0.09
0.41
0.76
0.89
0.83
0.68
0.52
0.43
0.37
0.32
0.21
0.03
-0.24
-0.57
-0.9
-1.18
-1.36
-1.47
-1.51
-1.53
-1.54
-1.53
-1.5
-1.43
-1.35
-1.26
-1.2
-1.14
-1.07
-0.98
-0.9
-0.88
-0.93
-1.03
-1.08
-1.01
-0.79
-0.47
-0.14
0.1
0.23
0.28
0.31
0.37
0.49
0.67
0.9
1.16
1.42
1.61
1.66
1.51
1.17
0.74
0.36
0.17
0.22
0.45
0.78
1.08
1.28
1.32
1.18
0.87
0.42
-0.05
-0.41
-0.57
-0.49
-0.26
-0.04
0.04
-0.07
-0.3
-0.5
-0.57
-0.5
-0.34
-0.19
-0.13
-0.14
-0.17
-0.18
-0.12
0.01
0.16
0.27
0.32
0.29
0.23
0.22
0.31
0.56
0.93
1.33
1.65
1.79
1.73
1.54
1.31
1.12
1
0.92
0.8
0.6
0.33
0.06
-0.07
0.07
0.56
1.36
2.36
3.36
4.2
4.77
5.03
4.97
4.61
3.95
2.97
1.68
0.14
-1.54
-3.18
-4.62
-5.75
-6.6
-7.24
-7.76
-8.17
-8.44
-8.42
-7.99
-7.13
-5.9
-4.46
-2.96
-1.55
-0.3
0.75
1.55
2.07
2.26
2.17
1.91
1.62
1.47
1.52
1.77
2.1
2.38
2.52
2.47
2.27
1.93
1.52
1.06
0.63
0.31
0.19
0.32
0.68
1.15
1.58
1.84
1.89
1.74
1.46
1.13
0.8
0.49
0.23
0.06
0.02
0.1
0.23
0.33
0.28
0.03
-0.4
-0.92
-1.41
-1.75
-1.89
-1.82
-1.61
-1.32
-1.03
-0.81
-0.7
-0.72
-0.88
-1.12
-1.34
-1.39
-1.16
-0.61
0.19
1.02
1.64
1.9
1.75
1.31
0.76
0.24
-0.13
-0.34
-0.4
-0.3
-0.02
0.46
1.1
1.77
2.29
2.47
2.2
1.51
0.6
-0.3
-0.96
-1.25
-1.18
-0.91
-0.63
-0.5
-0.56
-0.77
-1.01
-1.18
-1.22
-1.15
-1
-0.83
-0.65
-0.48
-0.31
-0.12
0.07
0.21
0.26
0.16
-0.12
-0.53
-0.99
-1.39
-1.6
-1.61
-1.41
-1.07
-0.66
-0.23
0.15
0.44
0.61
0.65
0.6
0.55
0.55
0.6
0.66
0.67
0.64
0.64
0.73
0.93
1.14
1.19
0.96
0.47
-0.14
-0.66
-0.92
-0.91
-0.75
-0.61
-0.57
-0.63
-0.66
-0.6
-0.45
-0.32
-0.3
-0.44
-0.67
-0.84
-0.8
-0.5
-0.02
0.44
0.73
0.75
0.6
0.41
0.32
0.36
0.46
0.52
0.48
0.35
0.19
0.07
0.02
0.02
0.03
0.02
-0.01
-0.02
-0.01
0.02
0.04
-0.01
-0.14
-0.32
-0.49
-0.58
-0.53
-0.34
-0.06
0.23
0.43
0.5
0.44
0.29
0.14
0.02
-0.03
-0.05
-0.08
-0.13
-0.21
-0.27
-0.29
-0.23
-0.14
-0.05
-0.02
-0.07
-0.18
-0.33
-0.45
-0.49
-0.41
-0.18
0.16
0.53
0.79
0.84
0.66
0.34
0.01
-0.17
-0.15
0.01
0.19
0.3
0.29
0.19
0.03
-0.11
-0.23
-0.3
-0.3
-0.23
-0.08
0.12
0.3
0.41
0.39
0.24
0
-0.25
-0.43
-0.51
-0.49
-0.41
-0.35
-0.37
-0.47
-0.62
-0.77
-0.87
-0.89
-0.87
-0.83
-0.82
-0.82
-0.82
-0.79
-0.72
-0.62
-0.49
-0.36
-0.24
-0.14
-0.04
0.09
0.26
0.47
0.71
0.9
0.98
0.89
0.65
0.34
0.07
-0.06
-0.03
0.11
0.26
0.36
0.41
0.47
0.59
0.77
0.94
1.03
0.97
0.75
0.44
0.1
-0.2
-0.45
-0.62
-0.75
-0.82
-0.87
-0.89
-0.87
-0.77
-0.58
-0.26
0.13
0.5
0.74
0.78
0.61
0.32
0.04
-0.14
-0.16
-0.07
0.07
0.15
0.15
0.05
-0.1
-0.22
-0.28
-0.26
-0.17
-0.05
0.08
0.22
0.36
0.48
0.54
0.51
0.38
0.18
-0.04
-0.2
-0.27
-0.25
-0.16
-0.03
0.09
0.2
0.28
0.3
0.25
0.12
-0.07
-0.28
-0.46
-0.59
-0.66
-0.66
-0.59
-0.42
-0.16
0.15
0.44
0.62
0.63
0.48
0.25
0.05
-0.06
-0.07
-0.03
-0.01
-0.02
-0.03
0.04
0.23
0.5
0.73
0.79
0.58
0.14
-0.39
-0.83
-1.02
-0.9
-0.57
-0.17
0.14
0.26
0.2
0.02
-0.16
-0.24
-0.17
0.03
0.3
0.55
0.71
0.76
0.71
0.59
0.43
0.23
0.01
-0.19
-0.32
-0.31
-0.12
0.2
0.57
0.85
0.93
0.77
0.44
0.06
-0.24
-0.39
-0.38
-0.3
-0.21
-0.19
-0.25
-0.35
-0.47
-0.58
-0.67
-0.75
-0.78
-0.72
-0.54
-0.27
0.05
0.31
0.43
0.4
0.29
0.19
0.15
0.18
0.2
0.14
-0.02
-0.21
-0.33
-0.3
-0.14
0.08
0.24
0.3
0.25
0.15
0.02
-0.13
-0.32
-0.55
-0.78
-0.94
-0.96
-0.87
-0.74
-0.67
-0.7
-0.81
-0.93
-0.99
-0.97
-0.88
-0.77
-0.62
-0.39
-0.07
0.33
0.74
1.06
1.24
1.28
1.25
1.21
1.21
1.17
1.03
0.68
0.11
-0.63
-1.37
-1.94
-2.24
-2.23
-2.01
-1.69
-1.37
-1.09
-0.85
-0.64
-0.46
-0.32
-0.27
-0.3
-0.38
-0.47
-0.56
-0.63
-0.7
-0.75
-0.76
-0.74
-0.74
-0.86
-1.18
-1.71
-2.31
-2.77
-2.88
-2.54
-1.84
-1
-0.3
0.05
0.01
-0.25
-0.53
-0.65
-0.55
-0.3
-0.02
0.2
0.31
0.37
0.39
0.37
0.25
-0.03
-0.45
-0.91
-1.23
-1.31
-1.12
-0.76
-0.38
-0.13
-0.09
-0.24
-0.48
-0.69
-0.74
-0.57
-0.14
0.52
1.4
2.41
3.44
4.34
4.94
5.06
4.62
3.63
2.27
0.79
-0.54
-1.51
-2.06
-2.26
-2.24
-2.13
-1.97
-1.74
-1.39
-0.91
-0.35
0.19
0.62
0.86
0.89
0.7
0.34
-0.18
-0.81
-1.5
-2.13
-2.59
-2.79
-2.63
-2.1
-1.25
-0.18
0.98
2.11
3.12
3.98
4.66
5.15
5.39
5.31
4.85
4.09
3.2
2.44
2.06
2.15
2.6
3.16
3.49
3.41
2.86
2.02
1.11
0.34
-0.23
-0.66
-1.06
-1.5
-1.99
-2.44
-2.79
-3.01
-3.1
-3.08
-2.94
-2.6
-2.06
-1.35
-0.58
0.12
0.63
0.91
0.94
0.77
0.49
0.23
0.1
0.22
0.64
1.32
2.16
3.02
3.83
4.55
5.2
5.84
6.5
7.16
7.81
8.38
8.76
8.81
8.36
7.3
5.62
3.42
0.89
-1.78
-4.39
-6.8
-8.83
-10.32
-11.14
-11.23
-10.64
-9.45
-7.77
-5.64
-3.1
-0.28
2.56
5.03
6.72
7.37
6.98
5.85
4.39
3.01
1.92
1.15
0.58
0.07
-0.51
-1.18
-1.87
-2.49
-2.96
-3.21
-3.25
-3.1
-2.84
-2.51
-2.16
-1.83
-1.53
-1.31
-1.19
-1.17
-1.2
-1.22
-1.13
-0.89
-0.54
-0.16
0.15
0.31
0.34
0.28
0.26
0.32
0.48
0.67
0.77
0.71
0.49
0.18
-0.1
-0.24
-0.21
-0.04
0.19
0.38
0.48
0.47
0.38
0.23
0.05
-0.1
-0.18
-0.16
0
0.27
0.57
0.84
1.02
1.09
1.06
0.98
0.88
0.75
0.61
0.41
0.18
-0.04
-0.19
-0.23
-0.13
0.06
0.3
0.53
0.74
0.92
1.09
1.23
1.29
1.23
1.05
0.81
0.59
0.47
0.47
0.55
0.62
0.63
0.56
0.46
0.4
0.4
0.48
0.61
0.77
0.94
1.11
1.27
1.37
1.35
1.14
0.73
0.12
-0.6
-1.32
-1.95
-2.42
-2.7
-2.81
-2.78
-2.67
-2.54
-2.44
-2.4
-2.45
-2.6
-2.8
-2.95
-2.96
-2.76
-2.3
-1.68
-1.01
-0.46
-0.17
-0.15
-0.34
-0.58
-0.74
-0.75
-0.64
-0.45
-0.22
0.04
0.34
0.68
0.99
1.22
1.29
1.22
1.05
0.83
0.63
0.52
0.51
0.6
0.74
0.87
0.87
0.7
0.34
-0.13
-0.6
-0.96
-1.14
-1.15
-1.06
-0.9
-0.73
-0.58
-0.51
-0.57
-0.78
-1.13
-1.54
-1.88
-2.03
-1.92
-1.56
-1.07
-0.56
-0.14
0.13
0.27
0.33
0.36
0.38
0.44
0.56
0.77
1.07
1.4
1.67
1.8
1.71
1.4
0.93
0.37
-0.15
-0.53
-0.69
-0.6
-0.32
0.05
0.38
0.55
0.52
0.32
0.07
-0.14
-0.24
-0.24
-0.16
-0.05
0.07
0.17
0.22
0.17
0.02
-0.21
-0.4
-0.46
-0.32
-0.01
0.35
0.6
0.65
0.5
0.25
0.03
-0.11
-0.18
-0.24
-0.33
-0.41
-0.37
-0.16
0.18
0.51
0.65
0.49
0.08
-0.41
-0.78
-0.92
-0.83
-0.63
-0.45
-0.36
-0.36
-0.39
-0.4
-0.37
-0.29
-0.19
-0.08
0.04
0.15
0.28
0.4
0.54
0.66
0.77
0.81
0.77
0.64
0.47
0.28
0.1
-0.03
-0.14
-0.24
-0.34
-0.41
-0.43
-0.39
-0.31
-0.2
-0.07
0.1
0.32
0.6
0.87
1.05
1.04
0.8
0.34
-0.21
-0.71
-1.06
-1.17
-1.07
-0.8
-0.46
-0.16
0.02
0.03
-0.11
-0.36
-0.6
-0.73
-0.67
-0.45
-0.16
0.07
0.09
-0.11
-0.48
-0.86
-1.08
-1.06
-0.81
-0.41
0.01
0.35
0.57
0.67
0.64
0.5
0.3
0.09
-0.04
-0.05
0.05
0.2
0.34
0.44
0.52
0.59
0.69
0.79
0.86
0.84
0.75
0.59
0.43
0.29
0.17
0.08
0
-0.04
-0.03
0.05
0.18
0.31
0.38
0.34
0.18
-0.03
-0.2
-0.23
-0.11
0.1
0.3
0.41
0.38
0.27
0.11
-0.04
-0.19
-0.34
-0.5
-0.63
-0.68
-0.62
-0.46
-0.26
-0.09
-0.03
-0.12
-0.32
-0.58
-0.82
-0.95
-0.93
-0.73
-0.42
-0.07
0.23
0.41
0.48
0.48
0.49
0.54
0.63
0.72
0.74
0.66
0.47
0.23
0.03
-0.07
-0.06
0
0.03
-0.04
-0.19
-0.37
-0.49
-0.5
-0.44
-0.37
-0.35
-0.41
-0.49
-0.5
-0.39
-0.18
0.06
0.21
0.22
0.06
-0.19
-0.44
-0.56
-0.51
-0.31
-0.03
0.21
0.34
0.34
0.25
0.13
0.01
-0.11
-0.25
-0.43
-0.6
-0.68
-0.62
-0.39
-0.06
0.29
0.54
0.61
0.45
0.11
-0.32
-0.71
-0.94
-0.93
-0.7
-0.34
-0.01
0.17
0.17
0.02
-0.16
-0.3
-0.33
-0.27
-0.16
-0.03
0.07
0.16
0.24
0.32
0.41
0.47
0.47
0.39
0.24
0.05
-0.09
-0.16
-0.13
-0.04
0.05
0.09
0.1
0.09
0.12
0.19
0.26
0.26
0.16
-0.06
-0.3
-0.49
-0.56
-0.54
-0.46
-0.37
-0.27
-0.13
0.07
0.31
0.49
0.53
0.36
0.03
-0.33
-0.62
-0.76
-0.78
-0.73
-0.69
-0.62
-0.5
-0.28
0.03
0.37
0.66
0.82
0.83
0.73
0.54
0.34
0.18
0.12
0.2
0.42
0.7
0.94
1.05
1
0.86
0.75
0.73
0.83
0.99
1.12
1.13
0.98
0.7
0.29
-0.17
-0.63
-0.98
-1.11
-0.96
-0.56
-0.03
0.46
0.75
0.78
0.58
0.24
-0.11
-0.35
-0.42
-0.3
-0.03
0.29
0.58
0.77
0.81
0.72
0.52
0.23
-0.11
-0.5
-0.87
-1.18
-1.35
-1.38
-1.29
-1.14
-0.97
-0.79
-0.58
-0.35
-0.12
0.05
0.09
0.05
-0.03
-0.03
0.09
0.31
0.53
0.64
0.62
0.51
0.39
0.3
0.24
0.13
-0.07
-0.36
-0.68
-0.93
-1.03
-0.96
-0.76
-0.52
-0.32
-0.17
-0.07
0.04
0.18
0.34
0.5
0.57
0.5
0.27
-0.07
-0.42
-0.66
-0.71
-0.57
-0.32
-0.09
0.03
0
-0.1
-0.18
-0.15
0
0.19
0.32
0.35
0.3
0.25
0.22
0.18
0.07
-0.16
-0.47
-0.76
-0.89
-0.78
-0.46
-0.02
0.43
0.79
1.03
1.12
1.02
0.71
0.24
-0.31
-0.76
-0.97
-0.83
-0.43
0.09
0.52
0.71
0.63
0.38
0.09
-0.1
-0.15
-0.07
0.06
0.14
0.16
0.17
0.24
0.4
0.61
0.75
0.71
0.48
0.16
-0.09
-0.14
-0.01
0.2
0.31
0.22
-0.03
-0.34
-0.55
-0.6
-0.55
-0.48
-0.45
-0.47
-0.45
-0.33
-0.12
0.11
0.27
0.29
0.19
0.06
-0.04
-0.06
-0.03
-0.02
-0.06
-0.15
-0.21
-0.18
-0.04
0.19
0.43
0.6
0.66
0.59
0.38
0.07
-0.29
-0.61
-0.82
-0.84
-0.68
-0.38
-0.04
0.25
0.46
0.59
0.66
0.66
0.61
0.47
0.25
-0.02
-0.28
-0.48
-0.58
-0.55
-0.42
-0.21
0.01
0.18
0.23
0.18
0.06
-0.06
-0.11
-0.08
0.04
0.21
0.39
0.56
0.67
0.69
0.61
0.41
0.15
-0.1
-0.23
-0.21
-0.02
0.28
0.61
0.84
0.86
0.6
0.1
-0.5
-1.03
-1.3
-1.28
-1.05
-0.77
-0.61
-0.64
-0.79
-0.92
-0.91
-0.75
-0.47
-0.2
0.01
0.13
0.19
0.23
0.24
0.23
0.17
0.07
-0.02
-0.05
0.04
0.27
0.61
0.97
1.18
1.14
0.78
0.19
-0.42
-0.85
-0.95
-0.74
-0.38
-0.06
0.1
0.13
0.11
0.15
0.27
0.42
0.5
0.46
0.32
0.12
-0.07
-0.22
-0.34
-0.41
-0.44
-0.38
-0.21
0.05
0.34
0.54
0.54
0.29
-0.17
-0.67
-0.99
-0.97
-0.58
0.06
0.68
1.05
1.05
0.72
0.24
-0.2
-0.47
-0.52
-0.4
-0.18
0.07
0.27
0.34
0.24
-0.03
-0.38
-0.67
-0.76
-0.59
-0.24
0.16
0.46
0.57
0.53
0.41
0.3
0.21
0.15
0.09
0.03
0.01
0.05
0.15
0.27
0.39
0.47
0.48
0.42
0.28
0.08
-0.17
-0.42
-0.58
-0.62
-0.52
-0.34
-0.17
-0.09
-0.14
-0.25
-0.34
-0.3
-0.1
0.24
0.63
0.93
1.04
0.92
0.62
0.25
-0.08
-0.28
-0.37
-0.38
-0.38
-0.38
-0.36
-0.26
-0.06
0.22
0.5
0.68
0.72
0.65
0.53
0.43
0.36
0.3
0.2
0.08
-0.06
-0.16
-0.21
-0.21
-0.18
-0.12
0
0.21
0.48
0.76
0.95
1.01
0.96
0.89
0.9
1.02
1.17
1.22
1.07
0.67
0.09
-0.52
-1.03
-1.35
-1.47
-1.44
-1.31
-1.09
-0.79
-0.45
-0.11
0.13
0.18
0.02
-0.29
-0.62
-0.86
-0.98
-1
-1.01
-1.03
-1.03
-0.92
-0.66
-0.3
0.05
0.24
0.18
-0.04
-0.29
-0.42
-0.35
-0.15
0.06
0.17
0.18
0.12
0.09
0.14
0.21
0.24
0.16
-0.01
-0.2
-0.33
-0.37
-0.32
-0.24
-0.14
0
0.23
0.54
0.86
1.07
1.06
0.78
0.31
-0.19
-0.57
-0.72
-0.62
-0.32
0.06
0.42
0.69
0.84
0.85
0.75
0.54
0.24
-0.11
-0.46
-0.71
-0.79
-0.66
-0.36
-0.01
0.25
0.31
0.17
-0.09
-0.36
-0.52
-0.59
-0.6
-0.64
-0.73
-0.81
-0.82
-0.69
-0.46
-0.19
0.02
0.11
0.11
0.09
0.13
0.24
0.39
0.52
0.58
0.58
0.56
0.54
0.54
0.51
0.41
0.24
0.02
-0.15
-0.21
-0.1
0.12
0.36
0.52
0.51
0.34
0.12
-0.06
-0.11
-0.02
0.15
0.29
0.32
0.23
0.07
-0.09
-0.19
-0.25
-0.27
-0.28
-0.26
-0.18
-0.02
0.14
0.21
0.11
-0.16
-0.5
-0.75
-0.79
-0.57
-0.2
0.16
0.38
0.42
0.32
0.17
0.03
-0.08
-0.18
-0.29
-0.38
-0.41
-0.34
-0.2
-0.06
-0.03
-0.12
-0.3
-0.48
-0.55
-0.46
-0.19
0.16
0.52
0.79
0.91
0.88
0.74
0.53
0.3
0.07
-0.15
-0.35
-0.54
-0.7
-0.8
-0.82
-0.73
-0.55
-0.33
-0.12
0.03
0.12
0.13
0.1
0.05
-0.02
-0.12
-0.25
-0.41
-0.59
-0.75
-0.81
-0.71
-0.43
-0.04
0.35
0.61
0.63
0.46
0.23
0.11
0.23
0.55
0.94
1.22
1.27
1.12
0.88
0.68
0.6
0.59
0.6
0.55
0.46
0.39
0.37
0.39
0.37
0.25
0.03
-0.24
-0.45
-0.56
-0.54
-0.45
-0.35
-0.29
-0.28
-0.29
-0.32
-0.38
-0.46
-0.56
-0.67
-0.73
-0.72
-0.62
-0.47
-0.29
-0.11
0.03
0.14
0.21
0.24
0.24
0.23
0.21
0.2
0.18
0.14
0.08
-0.02
-0.11
-0.18
-0.2
-0.17
-0.11
-0.03
0.04
0.09
0.11
0.09
0.03
-0.06
-0.16
-0.21
-0.16
0.01
0.3
0.63
0.9
1.02
0.94
0.7
0.37
0.07
-0.11
-0.15
-0.05
0.09
0.18
0.17
0.03
-0.2
-0.43
-0.57
-0.57
-0.43
-0.23
-0.1
-0.12
-0.33
-0.64
-0.9
-0.96
-0.77
-0.36
0.12
0.51
0.68
0.61
0.37
0.07
-0.2
-0.38
-0.44
-0.41
-0.31
-0.16
-0.01
0.16
0.3
0.39
0.41
0.39
0.37
0.39
0.46
0.52
0.51
0.39
0.16
-0.1
-0.3
-0.37
-0.3
-0.16
0
0.12
0.2
0.28
0.37
0.45
0.42
0.24
-0.1
-0.5
-0.84
-1.01
-0.96
-0.77
-0.54
-0.35
-0.25
-0.2
-0.13
0.01
0.21
0.42
0.59
0.7
0.77
0.82
0.9
0.97
0.98
0.82
0.45
-0.11
-0.75
-1.3
-1.6
-1.55
-1.19
-0.62
-0.02
0.48
0.82
1.03
1.14
1.14
1.02
0.72
0.28
-0.2
-0.6
-0.81
-0.78
-0.61
-0.4
-0.26
-0.22
-0.24
-0.27
-0.27
-0.25
-0.24
-0.21
-0.12
0.08
0.36
0.65
0.83
0.8
0.58
0.28
0.05
-0.01
0.08
0.24
0.31
0.24
0.02
-0.23
-0.4
-0.44
-0.36
-0.27
-0.23
-0.28
-0.36
-0.37
-0.26
-0.06
0.16
0.31
0.35
0.33
0.31
0.33
0.35
0.29
0.12
-0.14
-0.37
-0.49
-0.47
-0.35
-0.21
-0.13
-0.08
-0.01
0.15
0.39
0.65
0.81
0.8
0.65
0.4
0.15
-0.04
-0.15
-0.23
-0.29
-0.39
-0.53
-0.69
-0.8
-0.81
-0.69
-0.48
-0.25
-0.1
-0.06
-0.1
-0.12
-0.05
0.14
0.37
0.56
0.6
0.52
0.35
0.18
0.05
-0.05
-0.15
-0.26
-0.34
-0.33
-0.23
-0.1
0
-0.01
-0.1
-0.2
-0.2
-0.09
0.06
0.12
0
-0.3
-0.63
-0.82
-0.75
-0.43
-0.01
0.34
0.5
0.49
0.39
0.31
0.26
0.21
0.12
-0.02
-0.11
-0.05
0.22
0.64
1.05
1.3
1.31
1.11
0.84
0.62
0.5
0.42
0.28
0.03
-0.3
-0.59
-0.73
-0.63
-0.35
0
0.29
0.45
0.48
0.41
0.29
0.13
-0.04
-0.22
-0.34
-0.36
-0.27
-0.1
0.05
0.08
-0.08
-0.4
-0.81
-1.19
-1.45
-1.57
-1.58
-1.56
-1.54
-1.54
-1.53
-1.47
-1.33
-1.12
-0.88
-0.67
-0.52
-0.47
-0.55
-0.75
-1.02
-1.31
-1.51
-1.58
-1.56
-1.52
-1.56
-1.74
-2.03
-2.35
-2.62
-2.82
-2.95
-3.03
-3.01
-2.84
-2.49
-2.03
-1.6
-1.39
-1.5
-1.89
-2.35
-2.64
-2.57
-2.11
-1.37
-0.5
0.37
1.25
2.15
3.1
4.04
4.83
5.37
5.58
5.49
5.19
4.78
4.32
3.87
3.46
3.1
2.84
2.68
2.59
2.49
2.33
2.07
1.73
1.39
1.1
0.91
0.83
0.8
0.81
0.82
0.84
0.89
0.96
1.03
1.03
0.91
0.64
0.26
-0.12
-0.41
-0.52
-0.46
-0.31
-0.17
-0.13
-0.21
-0.35
-0.46
-0.5
-0.48
-0.49
-0.61
-0.85
-1.16
-1.39
-1.42
-1.24
-0.91
-0.58
-0.36
-0.3
-0.35
-0.46
-0.53
-0.56
-0.53
-0.45
-0.33
-0.17
0
0.14
0.17
0.06
-0.16
-0.44
-0.65
-0.72
-0.6
-0.34
-0.03
0.21
0.32
0.28
0.17
0.09
0.12
0.31
0.63
0.98
1.25
1.36
1.27
1.03
0.73
0.46
0.27
0.16
0.08
-0.05
-0.29
-0.64
-1.04
-1.4
-1.65
-1.75
-1.77
-1.83
-2.05
-2.48
-3.1
-3.81
-4.45
-4.9
-5.11
-5.09
-4.93
-4.68
-4.43
-4.21
-4.05
-3.97
-3.99
-4.11
-4.31
-4.55
-4.79
-4.99
-5.18
-5.39
-5.7
-6.17
-6.82
-7.67
-8.65
-9.75
-10.91
-12.06
-13.07
-13.72
-13.79
-13.08
-11.52
-9.2
-6.32
-3.06
0.47
4.31
8.57
13.32
18.45
23.56
28.09
31.38
32.93
32.52
30.28
26.59
22
17.11
12.48
8.57
5.7
3.98
3.26
3.12
3.03
2.46
1.16
-0.79
-2.94
-4.72
-5.65
-5.65
-4.99
-4.23
-3.84
-4.06
-4.73
-5.48
-5.92
-5.88
-5.44
-4.82
-4.22
-3.69
-3.16
-2.53
-1.77
-0.97
-0.27
0.23
0.53
0.7
0.8
0.88
0.94
0.96
0.95
0.93
0.9
0.87
0.82
0.75
0.69
0.68
0.75
0.88
1.01
1.01
0.81
0.41
-0.08
-0.51
-0.72
-0.65
-0.35
0.03
0.33
0.46
0.42
0.29
0.15
0.06
0.01
-0.01
0.07
0.39
1.12
2.38
4.15
6.3
8.61
10.92
13.16
15.27
17.2
18.79
19.81
20.03
19.29
17.63
15.2
12.27
9.11
5.9
2.79
-0.08
-2.51
-4.25
-5.03
-4.77
-3.6
-1.96
-0.42
0.46
0.26
-1.23
-3.95
-7.59
-11.62
-15.28
-17.82
-18.72
-17.91
-15.86
-13.3
-10.96
-9.19
-7.92
-6.82
-5.64
-4.39
-3.36
-2.9
-3.1
-3.72
-4.29
-4.39
-3.89
-3.02
-2.23
-1.93
-2.29
-3.17
-4.15
-4.82
-4.93
-4.55
-4.01
-3.76
-4.12
-5.21
-6.82
-8.54
-9.81
-10.13
-9.12
-6.68
-3.07
1.15
5.23
8.39
10.12
10.32
9.33
7.76
6.23
5.12
4.46
4.06
3.66
3.13
2.51
1.92
1.46
1.11
0.74
0.23
-0.4
-0.98
-1.24
-0.96
-0.15
0.96
2
2.61
2.64
2.18
1.51
0.92
0.59
0.55
0.66
0.75
0.68
0.44
0.11
-0.16
-0.21
0.07
0.71
1.65
2.73
3.76
4.52
4.84
4.66
4
2.95
1.61
0.07
-1.57
-3.23
-4.81
-6.19
-7.28
-8
-8.32
-8.28
-7.98
-7.59
-7.29
-7.21
-7.34
-7.6
-7.8
-7.77
-7.42
-6.74
-5.8
-4.67
-3.33
-1.72
0.18
2.32
4.51
6.48
7.99
8.91
9.31
9.37
9.31
9.27
9.24
9.16
8.89
8.41
7.77
7.07
6.37
5.63
4.74
3.54
2.03
0.32
-1.34
-2.74
-3.72
-4.28
-4.48
-4.35
-3.88
-3.11
-2.18
-1.37
-1.02
-1.38
-2.45
-3.9
-5.25
-6.01
-5.95
-5.16
-4
-2.86
-2.02
-1.49
-1.1
-0.61
0.09
0.92
1.72
2.34
2.73
2.98
3.2
3.42
3.52
3.36
2.83
1.97
0.96
0.05
-0.57
-0.85
-0.81
-0.57
-0.25
0.05
0.24
0.28
0.16
-0.04
-0.19
-0.19
0.07
0.57
1.2
1.79
2.16
2.2
1.94
1.56
1.29
1.33
1.8
2.63
3.63
4.59
5.34
5.8
5.98
5.91
5.6
5.06
4.28
3.33
2.28
1.2
0.12
-0.99
-2.13
-3.31
-4.43
-5.37
-6
-6.27
-6.18
-5.8
-5.22
-4.46
-3.59
-2.59
-1.5
-0.33
0.82
1.83
2.58
2.95
2.91
2.54
1.97
1.36
0.82
0.36
-0.09
-0.56
-1.07
-1.57
-1.96
-2.19
-2.25
-2.18
-2.03
-1.88
-1.75
-1.69
-1.72
-1.84
-2.02
-2.21
-2.34
-2.37
-2.28
-2.07
-1.77
-1.43
-1.1
-0.84
-0.68
-0.59
-0.52
-0.36
-0.07
0.33
0.72
0.97
0.98
0.74
0.36
-0.03
-0.28
-0.34
-0.27
-0.11
0.07
0.31
0.68
1.26
2.06
2.96
3.79
4.36
4.54
4.3
3.71
2.91
2.04
1.23
0.57
0.11
-0.15
-0.26
-0.28
-0.29
-0.35
-0.47
-0.62
-0.78
-0.92
-1.06
-1.19
-1.33
-1.46
-1.58
-1.69
-1.78
-1.85
-1.88
-1.85
-1.75
-1.61
-1.49
-1.46
-1.52
-1.61
-1.58
-1.31
-0.75
-0.03
0.62
0.98
0.96
0.61
0.13
-0.31
-0.59
-0.73
-0.78
-0.78
-0.74
-0.63
-0.45
-0.26
-0.17
-0.22
-0.38
-0.52
-0.54
-0.4
-0.15
0.11
0.36
0.62
0.96
1.45
2.06
2.66
3.08
3.22
3.05
2.69
2.3
1.99
1.79
1.65
1.47
1.2
0.88
0.57
0.39
0.32
0.3
0.21
-0.02
-0.38
-0.74
-0.97
-0.97
-0.73
-0.39
-0.09
0.05
-0.03
-0.26
-0.5
-0.64
-0.59
-0.39
-0.12
0.12
0.28
0.34
0.33
0.26
0.1
-0.14
-0.47
-0.82
-1.11
-1.24
-1.23
-1.12
-1.02
-1
-1.07
-1.15
-1.15
-1.01
-0.72
-0.36
-0.03
0.16
0.17
0.03
-0.15
-0.27
-0.24
-0.07
0.16
0.33
0.35
0.22
0.02
-0.15
-0.21
-0.13
0.05
0.26
0.44
0.56
0.59
0.53
0.36
0.1
-0.23
-0.53
-0.75
-0.84
-0.8
-0.66
-0.46
-0.24
-0.03
0.15
0.28
0.34
0.33
0.26
0.15
0
-0.17
-0.36
-0.52
-0.58
-0.5
-0.3
-0.04
0.15
0.2
0.09
-0.1
-0.26
-0.32
-0.27
-0.16
-0.06
0
0.02
0.06
0.11
0.19
0.26
0.28
0.21
0.05
-0.19
-0.44
-0.6
-0.62
-0.45
-0.18
0.08
0.2
0.13
-0.04
-0.13
0.01
0.4
0.92
1.32
1.37
1.04
0.42
-0.22
-0.68
-0.83
-0.72
-0.45
-0.17
0.06
0.22
0.32
0.38
0.37
0.29
0.12
-0.09
-0.3
-0.41
-0.34
-0.09
0.3
0.7
0.97
1.01
0.81
0.46
0.09
-0.19
-0.34
-0.4
-0.45
-0.54
-0.65
-0.7
-0.62
-0.41
-0.15
0.02
-0.02
-0.26
-0.58
-0.76
-0.64
-0.18
0.46
1
1.21
1.01
0.52
-0.01
-0.3
-0.25
0.08
0.49
0.75
0.76
0.56
0.26
0.01
-0.14
-0.22
-0.27
-0.32
-0.36
-0.33
-0.21
-0.03
0.14
0.23
0.2
0.1
0
-0.03
0.03
0.15
0.24
0.26
0.19
0.08
-0.03
-0.11
-0.17
-0.25
-0.37
-0.53
-0.68
-0.77
-0.76
-0.65
-0.46
-0.26
-0.07
0.06
0.09
0.02
-0.12
-0.3
-0.42
-0.44
-0.33
-0.12
0.14
0.39
0.59
0.73
0.83
0.86
0.81
0.65
0.38
0.05
-0.24
-0.39
-0.36
-0.19
0.06
0.29
0.45
0.54
0.59
0.65
0.75
0.89
1.02
1.1
1.07
0.88
0.53
0.06
-0.45
-0.85
-1.06
-1.01
-0.78
-0.48
-0.24
-0.13
-0.15
-0.23
-0.32
-0.38
-0.42
-0.45
-0.45
-0.41
-0.32
-0.2
-0.1
-0.08
-0.16
-0.3
-0.43
-0.5
-0.5
-0.46
-0.42
-0.38
-0.31
-0.16
0.06
0.3
0.46
0.46
0.27
-0.03
-0.31
-0.45
-0.41
-0.21
0.03
0.21
0.27
0.21
0.12
0.07
0.1
0.19
0.27
0.3
0.26
0.2
0.19
0.26
0.4
0.54
0.6
0.54
0.38
0.19
0
-0.16
-0.29
-0.35
-0.34
-0.2
0.05
0.35
0.58
0.61
0.38
-0.06
-0.56
-0.95
-1.13
-1.07
-0.85
-0.57
-0.3
-0.08
0.09
0.2
0.24
0.17
-0.01
-0.26
-0.5
-0.63
-0.61
-0.45
-0.23
-0.06
-0.01
-0.08
-0.22
-0.37
-0.46
-0.49
-0.45
-0.32
-0.1
0.21
0.56
0.87
1.05
1.07
0.95
0.8
0.7
0.74
0.87
1.06
1.21
1.28
1.26
1.15
0.94
0.64
0.28
-0.08
-0.36
-0.5
-0.5
-0.39
-0.25
-0.16
-0.16
-0.21
-0.28
-0.33
-0.33
-0.27
-0.19
-0.11
-0.03
0.04
0.09
0.11
0.09
0.04
-0.05
-0.13
-0.19
-0.2
-0.18
-0.13
-0.07
-0.01
0.07
0.17
0.28
0.37
0.37
0.28
0.05
-0.27
-0.64
-1.03
-1.37
-1.6
-1.65
-1.49
-1.15
-0.71
-0.31
-0.05
0.06
0.09
0.13
0.26
0.46
0.66
0.76
0.72
0.54
0.31
0.14
0.09
0.14
0.26
0.39
0.48
0.53
0.55
0.54
0.47
0.32
0.08
-0.2
-0.49
-0.71
-0.83
-0.86
-0.81
-0.71
-0.56
-0.34
-0.06
0.28
0.62
0.91
1.1
1.19
1.19
1.1
0.94
0.7
0.41
0.11
-0.12
-0.22
-0.16
0.02
0.2
0.25
0.11
-0.2
-0.54
-0.74
-0.67
-0.34
0.12
0.48
0.58
0.38
0
-0.41
-0.69
-0.78
-0.73
-0.63
-0.53
-0.46
-0.37
-0.23
-0.03
0.19
0.36
0.45
0.41
0.29
0.12
-0.06
-0.21
-0.32
-0.35
-0.29
-0.13
0.06
0.23
0.35
0.39
0.37
0.32
0.25
0.15
0.01
-0.15
-0.28
-0.32
-0.25
-0.08
0.11
0.25
0.3
0.26
0.18
0.1
0.05
0.05
0.1
0.14
0.17
0.15
0.09
0.04
0.04
0.11
0.23
0.31
0.31
0.18
-0.01
-0.16
-0.22
-0.16
-0.05
0.04
0.06
0.04
0.07
0.23
0.52
0.88
1.19
1.33
1.26
0.99
0.58
0.13
-0.31
-0.71
-1.03
-1.22
-1.26
-1.11
-0.85
-0.55
-0.33
-0.27
-0.35
-0.5
-0.62
-0.66
-0.6
-0.51
-0.39
-0.26
-0.1
0.08
0.2
0.16
-0.13
-0.61
-1.13
-1.49
-1.56
-1.34
-0.96
-0.6
-0.36
-0.26
-0.24
-0.25
-0.31
-0.45
-0.7
-1.01
-1.26
-1.36
-1.25
-0.97
-0.64
-0.38
-0.27
-0.29
-0.41
-0.53
-0.59
-0.53
-0.36
-0.12
0.09
0.19
0.16
0.05
-0.06
-0.05
0.13
0.43
0.78
1.04
1.14
1.12
1.06
1.07
1.22
1.45
1.67
1.73
1.58
1.22
0.74
0.29
-0.04
-0.19
-0.18
-0.1
-0.07
-0.19
-0.52
-1.04
-1.59
-1.99
-2.06
-1.75
-1.19
-0.62
-0.27
-0.29
-0.71
-1.45
-2.42
-3.49
-4.45
-4.96
-4.58
-2.98
-0.17
3.39
6.93
9.65
11.07
11.15
10.22
8.72
6.92
4.85
2.43
-0.33
-3.19
-5.65
-7.17
-7.41
-6.33
-4.27
-1.82
0.4
1.93
2.57
2.36
1.51
0.29
-1.12
-2.62
-4.16
-5.68
-7.08
-8.2
-8.91
-9.19
-9.14
-8.96
-8.93
-9.27
-10.05
-11.23
-12.59
-13.88
-14.88
-15.52
-15.82
-15.91
-15.95
-16.01
-16.12
-16.18
-16.07
-15.58
-14.47
-12.48
-9.38
-5.14
0.08
5.88
11.71
17.01
21.35
24.53
26.58
27.63
27.87
27.49
26.64
25.51
24.3
23.21
22.38
21.81
21.36
20.87
20.2
19.36
18.5
17.84
17.53
17.57
17.73
17.69
17.11
15.7
13.38
10.23
6.51
2.6
-1.14
-4.42
-7.07
-9.07
-10.5
-11.49
-12.14
-12.54
-12.73
-12.77
-12.71
-12.57
-12.35
-12.01
-11.48
-10.75
-9.84
-8.87
-7.92
-7.08
-6.37
-5.74
-5.15
-4.56
-3.99
-3.49
-3.12
-2.87
-2.72
-2.54
-2.26
-1.83
-1.26
-0.63
-0.05
0.42
0.72
0.85
0.82
0.68
0.48
0.31
0.24
0.29
0.45
0.62
0.69
0.59
0.35
0.05
-0.21
-0.39
-0.48
-0.52
-0.53
-0.54
-0.56
-0.6
-0.73
-0.98
-1.35
-1.77
-2.17
-2.46
-2.65
-2.77
-2.91
-3.15
-3.51
-3.94
-4.35
-4.65
-4.76
-4.65
-4.39
-4.12
-3.98
-4.05
-4.35
-4.79
-5.27
-5.72
-6.14
-6.54
-6.92
-7.2
-7.29
-7.13
-6.73
-6.18
-5.61
-5.1
-4.62
-4.04
-3.17
-1.8
0.15
2.69
5.69
8.9
12.03
14.8
16.99
18.49
19.32
19.52
19.16
18.3
17.04
15.48
13.82
12.21
10.73
9.39
8.15
6.99
5.95
5.15
4.63
4.37
4.22
4.01
3.63
3.03
2.26
1.35
0.3
-0.88
-2.17
-3.42
-4.44
-5.04
-5.13
-4.79
-4.2
-3.54
-2.94
-2.42
-1.97
-1.55
-1.17
-0.83
-0.55
-0.34
-0.2
-0.17
-0.32
-0.72
-1.37
-2.17
-2.94
-3.46
-3.59
-3.36
-2.9
-2.44
-2.18
-2.22
-2.54
-3.04
-3.57
-4.01
-4.27
-4.3
-4.16
-3.91
-3.67
-3.52
-3.45
-3.4
-3.29
-3.08
-2.81
-2.55
-2.39
-2.34
-2.34
-2.3
-2.16
-1.92
-1.63
-1.37
-1.19
-1.08
-1
-0.93
-0.86
-0.8
-0.8
-0.87
-0.97
-1.04
-0.98
-0.73
-0.3
0.21
0.62
0.82
0.76
0.53
0.27
0.13
0.16
0.33
0.53
0.69
0.79
0.83
0.82
0.76
0.65
0.5
0.39
0.41
0.58
0.85
1.09
1.14
0.94
0.52
0.03
-0.37
-0.58
-0.58
-0.42
-0.15
0.17
0.51
0.83
1.06
1.13
1.01
0.71
0.28
-0.18
-0.56
-0.81
-0.91
-0.93
-0.95
-1.06
-1.3
-1.65
-2
-2.25
-2.32
-2.22
-1.99
-1.73
-1.53
-1.4
-1.31
-1.23
-1.11
-0.93
-0.67
-0.36
-0.01
0.35
0.72
1.12
1.57
2.04
2.45
2.67
2.61
2.23
1.6
0.89
0.22
-0.32
-0.76
-1.15
-1.54
-1.9
-2.13
-2.12
-1.83
-1.28
-0.58
0.19
0.96
1.71
2.46
3.18
3.79
4.2
4.32
4.11
3.64
3.03
2.43
1.93
1.53
1.21
0.93
0.73
0.72
0.99
1.58
2.37
3.17
3.77
4.07
4.09
3.98
3.92
4.02
4.33
4.73
5.1
5.27
5.13
4.63
3.77
2.63
1.27
-0.2
-1.76
-3.43
-5.26
-7.3
-9.48
-11.6
-13.36
-14.46
-14.71
-14.1
-12.85
-11.29
-9.71
-8.25
-6.92
-5.58
-4.15
-2.64
-1.16
0.12
1.09
1.76
2.23
2.62
2.99
3.31
3.5
3.53
3.44
3.34
3.34
3.49
3.72
3.94
4.09
4.15
4.2
4.32
4.53
4.8
5.06
5.23
5.23
5.04
4.64
4
3.17
2.2
1.25
0.44
-0.16
-0.58
-0.91
-1.28
-1.77
-2.38
-3
-3.48
-3.7
-3.65
-3.37
-2.99
-2.63
-2.4
-2.34
-2.43
-2.65
-2.92
-3.16
-3.35
-3.49
-3.64
-3.89
-4.29
-4.83
-5.41
-5.89
-6.18
-6.23
-6.1
-5.84
-5.49
-5.05
-4.52
-3.92
-3.29
-2.66
-2.01
-1.23
-0.24
1
2.39
3.75
4.88
5.69
6.23
6.64
7.09
7.66
8.3
8.84
9.05
8.79
8
6.71
5.09
3.37
1.81
0.67
0.11
0.16
0.69
1.43
2.06
2.31
2.03
1.28
0.29
-0.66
-1.31
-1.52
-1.31
-0.77
-0.07
0.67
1.33
1.82
2.07
2.01
1.64
1.04
0.43
0.07
0.16
0.77
1.78
2.95
3.96
4.57
4.63
4.11
3.12
1.84
0.49
-0.72
-1.63
-2.21
-2.49
-2.58
-2.56
-2.49
-2.37
-2.22
-2.08
-2.07
-2.25
-2.64
-3.15
-3.59
-3.83
-3.78
-3.5
-3.15
-2.88
-2.73
-2.63
-2.46
-2.11
-1.55
-0.89
-0.29
0.09
0.24
0.21
0.18
0.29
0.65
1.22
1.91
2.57
3.03
3.17
2.94
2.34
1.45
0.4
-0.63
-1.44
-1.9
-1.93
-1.55
-0.87
-0.05
0.74
1.38
1.76
1.89
1.78
1.48
1.07
0.61
0.18
-0.15
-0.31
-0.26
0
0.41
0.85
1.18
1.31
1.26
1.1
0.95
0.93
1.09
1.38
1.72
2.03
2.27
2.47
2.67
2.96
3.34
3.79
4.23
4.57
4.72
4.64
4.32
3.84
3.32
2.9
2.67
2.66
2.79
2.85
2.64
2.01
0.98
-0.31
-1.62
-2.76
-3.66
-4.37
-4.97
-5.47
-5.8
-5.86
-5.64
-5.24
-4.87
-4.69
-4.75
-4.93
-5.01
-4.81
-4.33
-3.7
-3.14
-2.85
-2.82
-2.93
-2.96
-2.77
-2.33
-1.79
-1.32
-1.07
-0.99
-0.94
-0.76
-0.37
0.16
0.64
0.86
0.73
0.33
-0.15
-0.47
-0.51
-0.24
0.22
0.72
1.12
1.36
1.45
1.44
1.38
1.29
1.16
0.98
0.76
0.56
0.44
0.43
0.52
0.65
0.76
0.75
0.61
0.33
-0.03
-0.37
-0.6
-0.67
-0.6
-0.46
-0.33
-0.25
-0.22
-0.2
-0.15
-0.07
0.01
0.02
-0.05
-0.18
-0.34
-0.51
-0.66
-0.79
-0.87
-0.87
-0.78
-0.63
-0.46
-0.36
-0.34
-0.39
-0.46
-0.5
-0.49
-0.45
-0.4
-0.31
-0.15
0.12
0.48
0.83
1.06
1.11
0.97
0.76
0.59
0.53
0.56
0.58
0.51
0.31
0.03
-0.25
-0.42
-0.47
-0.44
-0.42
-0.45
-0.54
-0.65
-0.72
-0.71
-0.62
-0.43
-0.2
0.05
0.25
0.4
0.48
0.52
0.53
0.49
0.37
0.14
-0.15
-0.41
-0.53
-0.42
-0.14
0.17
0.36
0.33
0.12
-0.11
-0.2
-0.05
0.27
0.59
0.78
0.75
0.56
0.33
0.18
0.13
0.14
0.14
0.08
-0.04
-0.18
-0.28
-0.29
-0.2
-0.03
0.18
0.37
0.49
0.45
0.26
-0.05
-0.36
-0.55
-0.53
-0.29
0.11
0.52
0.82
0.92
0.8
0.49
0.09
-0.27
-0.46
-0.42
-0.15
0.25
0.63
0.86
0.87
0.71
0.46
0.25
0.12
0.08
0.08
0.1
0.13
0.2
0.31
0.45
0.54
0.48
0.24
-0.17
-0.65
-1.08
-1.36
-1.47
-1.44
-1.34
-1.24
-1.2
-1.25
-1.39
-1.62
-1.88
-2.11
-2.23
-2.19
-1.94
-1.48
-0.85
-0.15
0.5
0.94
1.07
0.84
0.32
-0.32
-0.92
-1.35
-1.6
-1.71
-1.74
-1.73
-1.63
-1.39
-0.99
-0.48
0
0.34
0.45
0.39
0.26
0.18
0.21
0.33
0.5
0.62
0.66
0.58
0.38
0.02
-0.49
-1.14
-1.89
-2.66
-3.35
-3.84
-4.05
-3.93
-3.48
-2.69
-1.6
-0.21
1.43
3.23
5.07
6.72
7.97
8.65
8.76
8.42
7.83
7.21
6.65
6.17
5.69
5.15
4.54
3.87
3.19
2.52
1.87
1.22
0.56
-0.11
-0.78
-1.44
-2.07
-2.62
-3.04
-3.24
-3.2
-2.94
-2.57
-2.18
-1.86
-1.62
-1.41
-1.19
-0.95
-0.71
-0.55
-0.54
-0.7
-0.99
-1.32
-1.65
-1.91
-2.1
-2.21
-2.24
-2.17
-2.01
-1.78
-1.51
-1.27
-1.09
-1.03
-1.1
-1.3
-1.56
-1.83
-1.97
-1.93
-1.68
-1.3
-0.94
-0.73
-0.77
-1.03
-1.4
-1.71
-1.82
-1.69
-1.35
-0.88
-0.34
0.24
0.91
1.65
2.39
2.99
3.32
3.29
2.96
2.48
2.01
1.67
1.44
1.26
1.03
0.73
0.38
0.06
-0.17
-0.29
-0.31
-0.28
-0.26
-0.25
-0.25
-0.25
-0.22
-0.15
-0.05
0.06
0.17
0.28
0.4
0.53
0.67
0.81
0.89
0.92
0.9
0.89
0.9
0.92
0.87
0.68
0.32
-0.2
-0.78
-1.31
-1.7
-1.92
-1.96
-1.9
-1.78
-1.63
-1.44
-1.2
-0.92
-0.65
-0.43
-0.3
-0.24
-0.18
-0.05
0.19
0.54
0.92
1.26
1.57
1.85
2.14
2.42
2.61
2.59
2.29
1.71
0.99
0.3
-0.19
-0.38
-0.3
-0.06
0.2
0.34
0.33
0.18
-0.02
-0.19
-0.3
-0.37
-0.46
-0.6
-0.75
-0.84
-0.79
-0.61
-0.35
-0.14
-0.09
-0.21
-0.44
-0.64
-0.71
-0.59
-0.34
-0.06
0.12
0.13
-0.04
-0.34
-0.67
-0.91
-0.97
-0.81
-0.44
0.05
0.53
0.88
0.99
0.82
0.42
-0.08
-0.53
-0.77
-0.77
-0.59
-0.37
-0.26
-0.31
-0.48
-0.66
-0.75
-0.71
-0.6
-0.46
-0.35
-0.29
-0.3
-0.34
-0.41
-0.49
-0.55
-0.57
-0.54
-0.45
-0.38
-0.36
-0.42
-0.53
